# scan = 120
# date = 11/9/2003
# time = 6:48:55 PM
# experiment = TbPtIn single crystal;  100 plane
# experiment_number = 41
# command = scan h 1.94 2.06 .005 k 1.94 2.06 .005 l 1.94 2.06 .005 preset mcu 20
# builtin_command = scan h 1.94 2.06 .005 k 1.94 2.06 .005 l 1.94 2.06 .005 preset mcu 20
# users = O.Garlea, C.Stassis, J.L.Zarestky
# local_contact = J.L.Zarestky
# scan_title = 222 order parameter UP T = 52.0000
# monochromator = PG002
# analyzer = Pg002
# sense = +-+
# collimation = 48-40-40-102
# samplename = TbPtIn
# sampletype = crystal
# samplemosaic = 30.000000
# latticeconstants = 7.554017,7.554017,3.847681,90.000000,90.000000,120.000000
# ubmatrix = -0.008230,-0.004834,0.259516,-0.134256,-0.130074,-0.012979,0.072618,-0.080146,0.005414
# mode = 0
# plane_normal = -0.022217,-0.027363,0.999379
# ubconf = C:\User\exp41\UBConf\UB08Nov2003_100555PM.ini
# preset_type = normal 
# preset_channel = mcu
# preset_value = 20.000000
# def_x = h
# def_y = detector
# col_headers = 
#   Pt.          h          k          l       time   detector    monitor        mcu         m2         s1         s2        sgl        sgu        stl        stu         a1         a2          q         ei         ef          e       temp    coldtip    tsample
      1     1.9400     1.9398     1.9401     18.707      3.000  74000.000     20.000    41.2537    -9.9321  -116.5757     1.2730    -1.5670    -0.0020    -0.0010    20.6267    41.2556     4.5224    14.6405    14.6392     0.0013    52.0000    51.9980    58.415
      2     1.9452     1.9450     1.9449     18.564      1.000  74000.000     20.000    41.2537   -10.1654  -117.0530     1.2730    -1.5670    -0.0020    -0.0010    20.6267    41.2556     4.5340    14.6405    14.6392     0.0013    52.0000    52.0050    58.554
      3     1.9500     1.9499     1.9500     18.718      2.000  74000.000     20.000    41.2537   -10.4094  -117.5353     1.2730    -1.5670    -0.0020    -0.0010    20.6266    41.2556     4.5456    14.6405    14.6392     0.0013    52.0000    52.0010    59.113
      4     1.9550     1.9549     1.9550     18.447      3.000  74000.000     20.000    41.2537   -10.6526  -118.0206     1.2730    -1.5670    -0.0020    -0.0010    20.6266    41.2556     4.5572    14.6405    14.6392     0.0013    52.0000    51.9900    58.974
      5     1.9601     1.9600     1.9600     18.645      1.000  74000.000     20.000    41.2537   -10.8967  -118.5137     1.2730    -1.5670    -0.0020    -0.0010    20.6266    41.2556     4.5690    14.6405    14.6392     0.0013    52.0000    52.0030    60.027
      6     1.9651     1.9649     1.9650     18.583      3.000  74000.000     20.000    41.2537   -11.1417  -119.0028     1.2730    -1.5670    -0.0020    -0.0010    20.6266    41.2556     4.5805    14.6405    14.6392     0.0013    52.0000    51.9900    58.441
      7     1.9701     1.9699     1.9700     18.738      8.000  74000.000     20.000    41.2537   -11.3927  -119.5019     1.2730    -1.5670    -0.0020    -0.0010    20.6266    41.2556     4.5922    14.6405    14.6392     0.0013    52.0000    51.9740    58.065
      8     1.9751     1.9749     1.9750     18.647     54.000  74000.000     20.000    41.2537   -11.6417  -120.0009     1.2730    -1.5670    -0.0020    -0.0010    20.6266    41.2556     4.6039    14.6405    14.6392     0.0013    52.0000    52.0280    61.208
      9     1.9801     1.9800     1.9800     18.656    539.000  74000.000     20.000    41.2537   -11.8937  -120.5078     1.2730    -1.5670    -0.0020    -0.0010    20.6266    41.2556     4.6156    14.6405    14.6392     0.0013    52.0000    52.0450    61.132
     10     1.9852     1.9850     1.9850     18.728   1191.000  74000.000     20.000    41.2537   -12.1476  -121.0176     1.2730    -1.5670    -0.0020    -0.0010    20.6266    41.2556     4.6273    14.6405    14.6392     0.0013    52.0000    52.0010    57.802
     11     1.9901     1.9899     1.9901     18.775   1356.000  74000.000     20.000    41.2537   -12.4065  -121.5294     1.2730    -1.5670    -0.0020    -0.0010    20.6266    41.2556     4.6389    14.6405    14.6392     0.0013    52.0000    51.9960    57.076
     12     1.9951     1.9949     1.9950     18.756   1382.000  74000.000     20.000    41.2537   -12.6624  -122.0442     1.2730    -1.5670    -0.0020    -0.0010    20.6266    41.2556     4.6505    14.6405    14.6392     0.0013    52.0000    52.0280    58.877
     13     2.0001     1.9999     2.0000     18.659   1535.000  74000.000     20.000    41.2537   -12.9222  -122.5639     1.2730    -1.5670    -0.0020    -0.0010    20.6266    41.2556     4.6622    14.6405    14.6392     0.0013    52.0000    52.0010    58.885
     14     2.0051     2.0050     2.0050     18.627   1684.000  74000.000     20.000    41.2537   -13.1850  -123.0904     1.2730    -1.5670    -0.0020    -0.0010    20.6266    41.2556     4.6738    14.6405    14.6392     0.0013    52.0000    52.0150    59.890
     15     2.0101     2.0099     2.0100     18.701   1500.000  74000.000     20.000    41.2537   -13.4518  -123.6200     1.2730    -1.5670    -0.0020    -0.0010    20.6266    41.2556     4.6855    14.6405    14.6392     0.0013    52.0000    51.9850    58.592
     16     2.0151     2.0149     2.0150     18.675   1053.000  74000.000     20.000    41.2537   -13.7175  -124.1524     1.2730    -1.5670    -0.0020    -0.0010    20.6266    41.2556     4.6971    14.6405    14.6392     0.0013    52.0000    51.9610    56.103
     17     2.0201     2.0200     2.0200     18.675    199.000  74000.000     20.000    41.2537   -13.9862  -124.6928     1.2730    -1.5670    -0.0020    -0.0010    20.6266    41.2556     4.7088    14.6405    14.6392     0.0013    52.0000    51.9960    58.927
     18     2.0250     2.0249     2.0250     18.632     15.000  74000.000     20.000    41.2537   -14.2598  -125.2351     1.2730    -1.5670    -0.0020    -0.0010    20.6266    41.2556     4.7204    14.6405    14.6392     0.0013    52.0000    52.0280    60.964
     19     2.0301     2.0299     2.0300     18.664      3.000  74000.000     20.000    41.2537   -14.5335  -125.7863     1.2730    -1.5670    -0.0020    -0.0010    20.6266    41.2556     4.7321    14.6405    14.6392     0.0013    52.0000    51.9790    56.197
     20     2.0351     2.0349     2.0350     18.681      3.000  74000.000     20.000    41.2537   -14.8091  -126.3375     1.2730    -1.5670    -0.0020    -0.0010    20.6266    41.2556     4.7437    14.6405    14.6392     0.0013    52.0000    52.0100    57.879
     21     2.0401     2.0400     2.0399     18.694      3.000  74000.000     20.000    41.2537   -15.0886  -126.8985     1.2730    -1.5670    -0.0020    -0.0010    20.6266    41.2556     4.7554    14.6405    14.6392     0.0013    52.0000    52.0290    58.481
     22     2.0450     2.0449     2.0450     18.584      5.000  74000.000     20.000    41.2537   -15.3730  -127.4625     1.2730    -1.5670    -0.0020    -0.0010    20.6266    41.2556     4.7671    14.6405    14.6392     0.0013    52.0000    52.0280    59.539
     23     2.0500     2.0499     2.0500     18.730      0.000  74000.000     20.000    41.2537   -15.6585  -128.0333     1.2730    -1.5670    -0.0020    -0.0010    20.6266    41.2556     4.7787    14.6405    14.6392     0.0013    52.0000    52.0120    59.993
     24     2.0552     2.0550     2.0550     18.678      8.000  74000.000     20.000    41.2537   -15.9459  -128.6131     1.2730    -1.5670    -0.0020    -0.0010    20.6266    41.2556     4.7904    14.6405    14.6392     0.0013    52.0000    51.9900    59.145
     25     2.0602     2.0600     2.0599     18.550      1.000  74000.000     20.000    41.2537   -16.2352  -129.1928     1.2730    -1.5670    -0.0020    -0.0010    20.6266    41.2556     4.8020    14.6405    14.6392     0.0013    52.0000    51.9410    56.293
# Sum of Counts = 10552
# Center of Mass = 1.999475+/-0.027528
# Full Width Half-Maximum = 0.022065+/-0.016593
# 6:58:00 PM  11/9/2003   scan completed.
