# scan = 125
# date = 11/9/2003
# time = 7:24:01 PM
# experiment = TbPtIn single crystal;  100 plane
# experiment_number = 41
# command = scan h 1.94 2.06 .005 k 1.94 2.06 .005 l 1.94 2.06 .005 preset mcu 20
# builtin_command = scan h 1.94 2.06 .005 k 1.94 2.06 .005 l 1.94 2.06 .005 preset mcu 20
# users = O.Garlea, C.Stassis, J.L.Zarestky
# local_contact = J.L.Zarestky
# scan_title = 222 order parameter UP T = 55.0000
# monochromator = PG002
# analyzer = Pg002
# sense = +-+
# collimation = 48-40-40-102
# samplename = TbPtIn
# sampletype = crystal
# samplemosaic = 30.000000
# latticeconstants = 7.554017,7.554017,3.847681,90.000000,90.000000,120.000000
# ubmatrix = -0.008230,-0.004834,0.259516,-0.134256,-0.130074,-0.012979,0.072618,-0.080146,0.005414
# mode = 0
# plane_normal = -0.022217,-0.027363,0.999379
# ubconf = C:\User\exp41\UBConf\UB08Nov2003_100555PM.ini
# preset_type = normal 
# preset_channel = mcu
# preset_value = 20.000000
# def_x = h
# def_y = detector
# col_headers = 
#   Pt.          h          k          l       time   detector    monitor        mcu         m2         s1         s2        sgl        sgu        stl        stu         a1         a2          q         ei         ef          e       temp    coldtip    tsample
      1     1.9400     1.9398     1.9401     18.698      2.000  74000.000     20.000    41.2537    -9.9321  -116.5757     1.2730    -1.5670    -0.0020    -0.0010    20.6267    41.2556     4.5224    14.6405    14.6392     0.0013    55.0000    54.9840    61.809
      2     1.9451     1.9450     1.9449     18.571      3.000  74000.000     20.000    41.2537   -10.1654  -117.0520     1.2730    -1.5670    -0.0020    -0.0010    20.6266    41.2556     4.5339    14.6405    14.6392     0.0013    55.0000    55.0350    64.238
      3     1.9500     1.9499     1.9500     18.565      0.000  74000.000     20.000    41.2537   -10.4094  -117.5353     1.2730    -1.5670    -0.0020    -0.0010    20.6266    41.2556     4.5456    14.6405    14.6392     0.0013    55.0000    55.0320    62.686
      4     1.9550     1.9549     1.9550     18.658      1.000  74000.000     20.000    41.2537   -10.6526  -118.0215     1.2730    -1.5670    -0.0020    -0.0010    20.6266    41.2556     4.5573    14.6405    14.6392     0.0013    55.0000    55.0260    62.106
      5     1.9601     1.9599     1.9600     18.629      2.000  74000.000     20.000    41.2537   -10.8967  -118.5127     1.2730    -1.5670    -0.0020    -0.0010    20.6266    41.2556     4.5690    14.6405    14.6392     0.0013    55.0000    55.0220    62.325
      6     1.9651     1.9649     1.9650     18.751      3.000  74000.000     20.000    41.2537   -11.1417  -119.0028     1.2730    -1.5670    -0.0020    -0.0010    20.6266    41.2556     4.5805    14.6405    14.6392     0.0013    55.0000    55.0110    62.407
      7     1.9701     1.9699     1.9700     18.665      6.000  74000.000     20.000    41.2537   -11.3917  -119.5028     1.2730    -1.5670    -0.0020    -0.0010    20.6266    41.2556     4.5923    14.6405    14.6392     0.0013    55.0000    54.9860    61.556
      8     1.9750     1.9749     1.9750     18.642     47.000  74000.000     20.000    41.2537   -11.6417  -119.9999     1.2730    -1.5670    -0.0020    -0.0010    20.6266    41.2556     4.6038    14.6405    14.6392     0.0013    55.0000    54.9720    60.917
      9     1.9801     1.9799     1.9800     18.646    569.000  74000.000     20.000    41.2537   -11.8947  -120.5078     1.2730    -1.5670    -0.0020    -0.0010    20.6266    41.2556     4.6156    14.6405    14.6392     0.0013    55.0000    54.9900    62.738
     10     1.9852     1.9851     1.9849     18.535   1173.000  74000.000     20.000    41.2537   -12.1467  -121.0186     1.2730    -1.5670    -0.0020    -0.0010    20.6266    41.2556     4.6273    14.6405    14.6392     0.0013    55.0000    54.9840    62.120
     11     1.9901     1.9899     1.9901     18.626   1326.000  74000.000     20.000    41.2537   -12.4065  -121.5294     1.2730    -1.5670    -0.0020    -0.0010    20.6266    41.2556     4.6389    14.6405    14.6392     0.0013    55.0000    54.9940    62.763
     12     1.9951     1.9949     1.9950     18.617   1318.000  74000.000     20.000    41.2537   -12.6624  -122.0442     1.2730    -1.5670    -0.0020    -0.0010    20.6266    41.2556     4.6505    14.6405    14.6392     0.0013    55.0000    55.0140    63.828
     13     2.0001     1.9999     2.0000     18.664   1611.000  74000.000     20.000    41.2537   -12.9232  -122.5639     1.2730    -1.5670    -0.0020    -0.0010    20.6266    41.2556     4.6622    14.6405    14.6392     0.0013    55.0000    55.0160    63.637
     14     2.0051     2.0050     2.0050     18.729   1628.000  74000.000     20.000    41.2537   -13.1850  -123.0904     1.2730    -1.5670    -0.0020    -0.0010    20.6266    41.2556     4.6738    14.6405    14.6392     0.0013    55.0000    55.0090    63.159
     15     2.0101     2.0099     2.0100     18.660   1463.000  74000.000     20.000    41.2537   -13.4518  -123.6200     1.2730    -1.5670    -0.0020    -0.0010    20.6266    41.2556     4.6855    14.6405    14.6392     0.0013    55.0000    54.9880    61.662
     16     2.0151     2.0149     2.0150     18.654   1035.000  74000.000     20.000    41.2537   -13.7175  -124.1524     1.2730    -1.5670    -0.0020    -0.0010    20.6266    41.2556     4.6971    14.6405    14.6392     0.0013    55.0000    55.0000    61.127
     17     2.0201     2.0200     2.0200     18.767    198.000  74000.000     20.000    41.2537   -13.9862  -124.6928     1.2730    -1.5670    -0.0020    -0.0010    20.6266    41.2556     4.7088    14.6405    14.6392     0.0013    55.0000    55.0180    62.452
     18     2.0251     2.0249     2.0250     18.658     11.000  74000.000     20.000    41.2537   -14.2589  -125.2351     1.2730    -1.5670    -0.0020    -0.0010    20.6266    41.2556     4.7204    14.6405    14.6392     0.0013    55.0000    54.9960    62.413
     19     2.0301     2.0299     2.0300     18.590      4.000  74000.000     20.000    41.2537   -14.5335  -125.7853     1.2730    -1.5670    -0.0020    -0.0010    20.6266    41.2556     4.7321    14.6405    14.6392     0.0013    55.0000    54.9570    59.143
     20     2.0351     2.0349     2.0350     18.637      1.000  74000.000     20.000    41.2537   -14.8100  -126.3375     1.2730    -1.5670    -0.0020    -0.0010    20.6266    41.2556     4.7437    14.6405    14.6392     0.0013    55.0000    55.0140    62.787
     21     2.0401     2.0399     2.0400     18.550      3.000  74000.000     20.000    41.2537   -15.0896  -126.8975     1.2730    -1.5670    -0.0020    -0.0010    20.6266    41.2556     4.7554    14.6405    14.6392     0.0013    55.0000    55.0040    62.052
     22     2.0451     2.0449     2.0450     18.680      2.000  74000.000     20.000    41.2537   -15.3730  -127.4635     1.2730    -1.5670    -0.0020    -0.0010    20.6266    41.2556     4.7671    14.6405    14.6392     0.0013    55.0000    55.0150    63.861
     23     2.0500     2.0499     2.0500     18.656      2.000  74000.000     20.000    41.2537   -15.6585  -128.0333     1.2730    -1.5670    -0.0020    -0.0010    20.6266    41.2556     4.7787    14.6405    14.6392     0.0013    55.0000    55.0020    63.164
     24     2.0553     2.0551     2.0549     18.754      2.000  74000.000     20.000    41.2537   -15.9439  -128.6141     1.2730    -1.5670    -0.0020    -0.0010    20.6266    41.2556     4.7905    14.6405    14.6392     0.0013    55.0000    54.9850    62.425
     25     2.0601     2.0600     2.0599     18.667      4.000  74000.000     20.000    41.2537   -16.2352  -129.1918     1.2730    -1.5670    -0.0020    -0.0010    20.6266    41.2556     4.8020    14.6405    14.6392     0.0013    55.0000    54.9810    62.556
# Sum of Counts = 10414
# Center of Mass = 1.999405+/-0.027708
# Full Width Half-Maximum = 0.021945+/-0.016780
# 7:33:06 PM  11/9/2003   scan completed.
