# scan = 165
# date = 11/9/2003
# time = 11:58:32 PM
# experiment = TbPtIn single crystal;  100 plane
# experiment_number = 41
# command = scan h 1.94 2.06 .005 k 1.94 2.06 .005 l 1.94 2.06 .005 preset mcu 20
# builtin_command = scan h 1.94 2.06 .005 k 1.94 2.06 .005 l 1.94 2.06 .005 preset mcu 20
# users = O.Garlea, C.Stassis, J.L.Zarestky
# local_contact = J.L.Zarestky
# scan_title = 222 order parameter DN T = 37.0000
# monochromator = PG002
# analyzer = Pg002
# sense = +-+
# collimation = 48-40-40-102
# samplename = TbPtIn
# sampletype = crystal
# samplemosaic = 30.000000
# latticeconstants = 7.554017,7.554017,3.847681,90.000000,90.000000,120.000000
# ubmatrix = -0.008230,-0.004834,0.259516,-0.134256,-0.130074,-0.012979,0.072618,-0.080146,0.005414
# mode = 0
# plane_normal = -0.022217,-0.027363,0.999379
# ubconf = C:\User\exp41\UBConf\UB08Nov2003_100555PM.ini
# preset_type = normal 
# preset_channel = mcu
# preset_value = 20.000000
# def_x = h
# def_y = detector
# col_headers = 
#   Pt.          h          k          l       time   detector    monitor        mcu         m2         s1         s2        sgl        sgu        stl        stu         a1         a2          q         ei         ef          e       temp    coldtip    tsample
      1     1.9400     1.9398     1.9401     18.646      0.000  74000.000     20.000    41.2537    -9.9321  -116.5747     1.2730    -1.5670    -0.0020    -0.0010    20.6267    41.2556     4.5223    14.6405    14.6392     0.0013    37.0000    37.0050    44.008
      2     1.9452     1.9450     1.9449     18.557      3.000  74000.000     20.000    41.2537   -10.1654  -117.0540     1.2730    -1.5670    -0.0020    -0.0010    20.6266    41.2556     4.5340    14.6405    14.6392     0.0013    37.0000    37.0020    43.079
      3     1.9501     1.9499     1.9500     18.591      5.000  74000.000     20.000    41.2537   -10.4094  -117.5363     1.2730    -1.5670    -0.0020    -0.0010    20.6266    41.2556     4.5456    14.6405    14.6392     0.0013    37.0000    37.0010    42.201
      4     1.9550     1.9548     1.9551     18.539      3.000  74000.000     20.000    41.2537   -10.6535  -118.0196     1.2730    -1.5670    -0.0020    -0.0010    20.6266    41.2556     4.5572    14.6405    14.6392     0.0013    37.0000    37.0080    43.404
      5     1.9601     1.9600     1.9600     18.591      4.000  74000.000     20.000    41.2537   -10.8957  -118.5127     1.2730    -1.5670    -0.0020    -0.0010    20.6266    41.2556     4.5690    14.6405    14.6392     0.0013    37.0000    36.9900    43.780
      6     1.9651     1.9649     1.9650     18.694     10.000  74000.000     20.000    41.2537   -11.1417  -119.0038     1.2730    -1.5670    -0.0020    -0.0010    20.6266    41.2556     4.5806    14.6405    14.6392     0.0013    37.0000    36.9820    43.169
      7     1.9700     1.9699     1.9700     18.512      3.000  74000.000     20.000    41.2537   -11.3927  -119.5009     1.2730    -1.5670    -0.0020    -0.0010    20.6266    41.2556     4.5922    14.6405    14.6392     0.0013    37.0000    36.9860    43.068
      8     1.9751     1.9749     1.9750     18.673     42.000  74000.000     20.000    41.2537   -11.6417  -120.0009     1.2730    -1.5670    -0.0020    -0.0010    20.6266    41.2556     4.6039    14.6405    14.6392     0.0013    37.0000    37.0020    44.225
      9     1.9801     1.9800     1.9800     18.511    470.000  74000.000     20.000    41.2537   -11.8937  -120.5078     1.2730    -1.5670    -0.0020    -0.0010    20.6266    41.2556     4.6156    14.6405    14.6392     0.0013    37.0000    36.9780    42.240
     10     1.9852     1.9850     1.9849     18.549   1094.000  74000.000     20.000    41.2537   -12.1476  -121.0186     1.2730    -1.5670    -0.0020    -0.0010    20.6266    41.2556     4.6273    14.6405    14.6392     0.0013    37.0000    37.0180    44.462
     11     1.9901     1.9899     1.9900     18.650   1403.000  74000.000     20.000    41.2537   -12.4065  -121.5304     1.2730    -1.5670    -0.0020    -0.0010    20.6266    41.2556     4.6389    14.6405    14.6392     0.0013    37.0000    37.0380    44.829
     12     1.9951     1.9949     1.9950     18.662   1421.000  74000.000     20.000    41.2537   -12.6624  -122.0432     1.2730    -1.5670    -0.0020    -0.0010    20.6266    41.2556     4.6505    14.6405    14.6392     0.0013    37.0000    36.9960    42.965
     13     2.0001     1.9999     2.0000     18.587   1563.000  74000.000     20.000    41.2537   -12.9222  -122.5639     1.2730    -1.5670    -0.0020    -0.0010    20.6266    41.2556     4.6622    14.6405    14.6392     0.0013    37.0000    37.0030    44.833
     14     2.0051     2.0050     2.0050     18.706   1676.000  74000.000     20.000    41.2537   -13.1850  -123.0904     1.2730    -1.5670    -0.0020    -0.0010    20.6266    41.2556     4.6738    14.6405    14.6392     0.0013    37.0000    36.9760    44.526
     15     2.0101     2.0099     2.0100     18.619   1564.000  74000.000     20.000    41.2537   -13.4518  -123.6200     1.2730    -1.5670    -0.0020    -0.0010    20.6266    41.2556     4.6855    14.6405    14.6392     0.0013    37.0000    36.9650    43.119
     16     2.0151     2.0149     2.0150     18.631   1266.000  74000.000     20.000    41.2537   -13.7175  -124.1524     1.2730    -1.5670    -0.0020    -0.0010    20.6266    41.2556     4.6971    14.6405    14.6392     0.0013    37.0000    36.9640    40.425
     17     2.0201     2.0200     2.0200     18.700    366.000  74000.000     20.000    41.2537   -13.9862  -124.6928     1.2730    -1.5670    -0.0020    -0.0010    20.6266    41.2556     4.7088    14.6405    14.6392     0.0013    37.0000    36.9940    40.516
     18     2.0250     2.0249     2.0250     18.640     15.000  74000.000     20.000    41.2537   -14.2598  -125.2351     1.2730    -1.5670    -0.0020    -0.0010    20.6266    41.2556     4.7204    14.6405    14.6392     0.0013    37.0000    37.0440    42.765
     19     2.0301     2.0299     2.0300     18.521      4.000  74000.000     20.000    41.2537   -14.5335  -125.7853     1.2730    -1.5670    -0.0020    -0.0010    20.6266    41.2556     4.7321    14.6405    14.6392     0.0013    37.0000    37.0320    43.333
     20     2.0351     2.0349     2.0350     18.522      1.000  74000.000     20.000    41.2537   -14.8091  -126.3375     1.2730    -1.5670    -0.0020    -0.0010    20.6266    41.2556     4.7437    14.6405    14.6392     0.0013    37.0000    37.0090    45.431
     21     2.0401     2.0399     2.0400     18.603      4.000  74000.000     20.000    41.2537   -15.0906  -126.8985     1.2730    -1.5670    -0.0020    -0.0010    20.6266    41.2556     4.7554    14.6405    14.6392     0.0013    37.0000    36.9810    44.380
     22     2.0450     2.0449     2.0450     18.492      7.000  74000.000     20.000    41.2537   -15.3730  -127.4625     1.2730    -1.5670    -0.0020    -0.0010    20.6266    41.2556     4.7671    14.6405    14.6392     0.0013    37.0000    36.9620    43.630
     23     2.0500     2.0499     2.0500     18.560      2.000  74000.000     20.000    41.2537   -15.6585  -128.0333     1.2730    -1.5670    -0.0020    -0.0010    20.6266    41.2556     4.7787    14.6405    14.6392     0.0013    37.0000    36.9800    43.544
     24     2.0552     2.0550     2.0549     18.649      4.000  74000.000     20.000    41.2537   -15.9449  -128.6141     1.2730    -1.5670    -0.0020    -0.0010    20.6266    41.2556     4.7905    14.6405    14.6392     0.0013    37.0000    36.9940    43.544
     25     2.0601     2.0600     2.0599     18.579      9.000  74000.000     20.000    41.2537   -16.2352  -129.1918     1.2730    -1.5670    -0.0020    -0.0010    20.6266    41.2556     4.8020    14.6405    14.6392     0.0013    37.0000    37.0250    43.979
# Sum of Counts = 10939
# Center of Mass = 2.000389+/-0.027049
# Full Width Half-Maximum = 0.022584+/-0.015950
# 12:07:37 AM  11/10/2003   scan completed.
