# scan = 155
# date = 11/9/2003
# time = 10:50:20 PM
# experiment = TbPtIn single crystal;  100 plane
# experiment_number = 41
# command = scan h 1.94 2.06 .005 k 1.94 2.06 .005 l 1.94 2.06 .005 preset mcu 20
# builtin_command = scan h 1.94 2.06 .005 k 1.94 2.06 .005 l 1.94 2.06 .005 preset mcu 20
# users = O.Garlea, C.Stassis, J.L.Zarestky
# local_contact = J.L.Zarestky
# scan_title = 222 order parameter DN T = 43.0000
# monochromator = PG002
# analyzer = Pg002
# sense = +-+
# collimation = 48-40-40-102
# samplename = TbPtIn
# sampletype = crystal
# samplemosaic = 30.000000
# latticeconstants = 7.554017,7.554017,3.847681,90.000000,90.000000,120.000000
# ubmatrix = -0.008230,-0.004834,0.259516,-0.134256,-0.130074,-0.012979,0.072618,-0.080146,0.005414
# mode = 0
# plane_normal = -0.022217,-0.027363,0.999379
# ubconf = C:\User\exp41\UBConf\UB08Nov2003_100555PM.ini
# preset_type = normal 
# preset_channel = mcu
# preset_value = 20.000000
# def_x = h
# def_y = detector
# col_headers = 
#   Pt.          h          k          l       time   detector    monitor        mcu         m2         s1         s2        sgl        sgu        stl        stu         a1         a2          q         ei         ef          e       temp    coldtip    tsample
      1     1.9400     1.9399     1.9401     18.798      3.000  74000.000     20.000    41.2537    -9.9321  -116.5767     1.2730    -1.5670    -0.0020    -0.0010    20.6267    41.2556     4.5224    14.6405    14.6392     0.0013    43.0000    42.9950    48.681
      2     1.9452     1.9450     1.9449     18.599      4.000  74000.000     20.000    41.2537   -10.1654  -117.0530     1.2730    -1.5670    -0.0020    -0.0010    20.6267    41.2556     4.5340    14.6405    14.6392     0.0013    43.0000    42.9920    48.300
      3     1.9500     1.9499     1.9501     18.554      1.000  74000.000     20.000    41.2537   -10.4104  -117.5353     1.2730    -1.5670    -0.0020    -0.0010    20.6266    41.2556     4.5456    14.6405    14.6392     0.0013    43.0000    43.0170    50.761
      4     1.9550     1.9549     1.9550     18.659      4.000  74000.000     20.000    41.2537   -10.6526  -118.0206     1.2730    -1.5670    -0.0020    -0.0010    20.6266    41.2556     4.5572    14.6405    14.6392     0.0013    43.0000    43.0060    49.011
      5     1.9601     1.9599     1.9600     18.703      5.000  74000.000     20.000    41.2537   -10.8967  -118.5127     1.2730    -1.5670    -0.0020    -0.0010    20.6266    41.2556     4.5690    14.6405    14.6392     0.0013    43.0000    43.0030    49.006
      6     1.9650     1.9649     1.9650     18.634      4.000  74000.000     20.000    41.2537   -11.1427  -119.0028     1.2730    -1.5670    -0.0020    -0.0010    20.6266    41.2556     4.5805    14.6405    14.6392     0.0013    43.0000    42.9920    48.733
      7     1.9701     1.9699     1.9700     18.709      6.000  74000.000     20.000    41.2537   -11.3917  -119.5019     1.2730    -1.5670    -0.0020    -0.0010    20.6266    41.2556     4.5922    14.6405    14.6392     0.0013    43.0000    42.9850    48.658
      8     1.9751     1.9749     1.9750     18.572     41.000  74000.000     20.000    41.2537   -11.6417  -120.0009     1.2730    -1.5670    -0.0020    -0.0010    20.6266    41.2556     4.6039    14.6405    14.6392     0.0013    43.0000    42.9930    49.194
      9     1.9801     1.9800     1.9800     18.629    442.000  74000.000     20.000    41.2537   -11.8937  -120.5078     1.2730    -1.5670    -0.0020    -0.0010    20.6266    41.2556     4.6156    14.6405    14.6392     0.0013    43.0000    42.9870    48.079
     10     1.9852     1.9850     1.9850     18.721   1094.000  74000.000     20.000    41.2537   -12.1476  -121.0176     1.2730    -1.5670    -0.0020    -0.0010    20.6266    41.2556     4.6273    14.6405    14.6392     0.0013    43.0000    43.0010    48.907
     11     1.9901     1.9899     1.9900     18.503   1409.000  74000.000     20.000    41.2537   -12.4055  -121.5294     1.2730    -1.5670    -0.0020    -0.0010    20.6266    41.2556     4.6389    14.6405    14.6392     0.0013    43.0000    43.0070    48.541
     12     1.9951     1.9949     1.9950     18.490   1444.000  74000.000     20.000    41.2537   -12.6634  -122.0442     1.2730    -1.5670    -0.0020    -0.0010    20.6266    41.2556     4.6505    14.6405    14.6392     0.0013    43.0000    43.0140    50.165
     13     2.0001     1.9999     2.0000     18.543   1550.000  74000.000     20.000    41.2537   -12.9222  -122.5639     1.2730    -1.5670    -0.0020    -0.0010    20.6266    41.2556     4.6622    14.6405    14.6392     0.0013    43.0000    43.0190    50.689
     14     2.0051     2.0049     2.0050     18.642   1641.000  74000.000     20.000    41.2537   -13.1850  -123.0895     1.2730    -1.5670    -0.0020    -0.0010    20.6266    41.2556     4.6738    14.6405    14.6392     0.0013    43.0000    42.9850    49.617
     15     2.0101     2.0099     2.0100     18.654   1571.000  74000.000     20.000    41.2537   -13.4518  -123.6200     1.2730    -1.5670    -0.0020    -0.0010    20.6266    41.2556     4.6855    14.6405    14.6392     0.0013    43.0000    42.9450    44.771
     16     2.0150     2.0149     2.0150     18.658   1218.000  74000.000     20.000    41.2537   -13.7185  -124.1524     1.2730    -1.5670    -0.0020    -0.0010    20.6266    41.2556     4.6971    14.6405    14.6392     0.0013    43.0000    42.9920    46.337
     17     2.0201     2.0200     2.0200     18.595    302.000  74000.000     20.000    41.2537   -13.9862  -124.6928     1.2730    -1.5670    -0.0020    -0.0010    20.6266    41.2556     4.7088    14.6405    14.6392     0.0013    43.0000    43.0490    49.566
     18     2.0251     2.0249     2.0250     18.573     13.000  74000.000     20.000    41.2537   -14.2589  -125.2351     1.2730    -1.5670    -0.0020    -0.0010    20.6266    41.2556     4.7204    14.6405    14.6392     0.0013    43.0000    43.0310    49.045
     19     2.0301     2.0300     2.0300     18.608      9.000  74000.000     20.000    41.2537   -14.5325  -125.7853     1.2730    -1.5670    -0.0020    -0.0010    20.6266    41.2556     4.7321    14.6405    14.6392     0.0013    43.0000    43.0010    48.283
     20     2.0351     2.0349     2.0350     18.611      2.000  74000.000     20.000    41.2537   -14.8091  -126.3375     1.2730    -1.5670    -0.0020    -0.0010    20.6266    41.2556     4.7437    14.6405    14.6392     0.0013    43.0000    42.9910    48.683
     21     2.0401     2.0399     2.0400     18.727      2.000  74000.000     20.000    41.2537   -15.0896  -126.8975     1.2730    -1.5670    -0.0020    -0.0010    20.6266    41.2556     4.7554    14.6405    14.6392     0.0013    43.0000    42.9880    48.814
     22     2.0450     2.0449     2.0451     18.514      2.000  74000.000     20.000    41.2537   -15.3740  -127.4635     1.2730    -1.5670    -0.0020    -0.0010    20.6266    41.2556     4.7671    14.6405    14.6392     0.0013    43.0000    43.0020    50.749
     23     2.0500     2.0499     2.0500     18.654      5.000  74000.000     20.000    41.2537   -15.6585  -128.0333     1.2730    -1.5670    -0.0020    -0.0010    20.6266    41.2556     4.7787    14.6405    14.6392     0.0013    43.0000    42.9680    46.222
     24     2.0552     2.0550     2.0549     18.490      3.000  74000.000     20.000    41.2537   -15.9449  -128.6141     1.2730    -1.5670    -0.0020    -0.0010    20.6266    41.2556     4.7905    14.6405    14.6392     0.0013    43.0000    42.9900    47.887
     25     2.0602     2.0600     2.0599     18.639      3.000  74000.000     20.000    41.2537   -16.2352  -129.1928     1.2730    -1.5670    -0.0020    -0.0010    20.6266    41.2556     4.8020    14.6405    14.6392     0.0013    43.0000    43.0290    49.121
# Sum of Counts = 10778
# Center of Mass = 2.000184+/-0.027247
# Full Width Half-Maximum = 0.022148+/-0.016301
# 10:59:26 PM  11/9/2003   scan completed.
