# scan = 252
# date = 11/10/2003
# time = 9:07:51 PM
# experiment = TbPtIn single crystal;  100 plane
# experiment_number = 41
# command = scan h 1.95 2.05 .005 k 1.95 2.05 .005 l 1.95 2.05 .005 preset mcu 10
# builtin_command = scan h 1.95 2.05 .005 k 1.95 2.05 .005 l 1.95 2.05 .005 preset mcu 10
# users = O.Garlea, C.Stassis, J.L.Zarestky
# local_contact = J.L.Zarestky
# scan_title = 222 field dependence: base Temp, H = 0.000000 T
# monochromator = PG002
# analyzer = Pg002
# sense = +-+
# collimation = 48-40-40-102
# samplename = TbPtIn
# sampletype = crystal
# samplemosaic = 30.000000
# latticeconstants = 7.554053,7.554053,3.846679,90.000000,90.000000,120.000000
# ubmatrix = -0.005362,-0.005623,0.259740,-0.129577,-0.134798,-0.010795,0.080912,-0.071857,-0.000073
# mode = 0
# plane_normal = 0.001702,0.034158,0.999415
# ubconf = C:\User\exp41\UBConf\UB10Nov2003_64050PM.ini
# preset_type = normal 
# preset_channel = mcu
# preset_value = 10.000000
# def_x = h
# def_y = detector
# col_headers = 
#   Pt.          h          k          l       time   detector    monitor        mcu         m2         s1         s2        sgl        sgu        stl        stu         a1         a2          q         ei         ef          e       temp    coldtip    tsample
      1     1.9500     1.9504     1.9499      9.255      5.000  37000.000     10.000    41.2537   -10.8789  -117.5668    -0.0975     1.9545     1.0040    -3.9990    20.6266    41.2566     4.5463    14.6405    14.6385     0.0020   295.0000     4.2333     5.449
      2     1.9548     1.9551     1.9550      9.229      7.000  37000.000     10.000    41.2537   -11.1240  -118.0461    -0.0975     1.9545     1.0040    -3.9990    20.6266    41.2566     4.5578    14.6405    14.6385     0.0020   295.0000     4.2311     5.451
      3     1.9598     1.9602     1.9600      9.251      0.000  37000.000     10.000    41.2537   -11.3681  -118.5383    -0.0975     1.9545     1.0040    -3.9990    20.6266    41.2566     4.5695    14.6405    14.6385     0.0020   295.0000     4.2325     5.449
      4     1.9648     1.9652     1.9650      9.300      3.000  37000.000     10.000    41.2537   -11.6152  -119.0314    -0.0975     1.9545     1.0040    -3.9990    20.6266    41.2566     4.5812    14.6405    14.6385     0.0020   295.0000     4.2362     5.447
      5     1.9698     1.9702     1.9700      9.230      3.000  37000.000     10.000    41.2537   -11.8642  -119.5284    -0.0975     1.9545     1.0040    -3.9990    20.6266    41.2566     4.5928    14.6405    14.6385     0.0020   295.0000     4.2310     5.445
      6     1.9748     1.9752     1.9750      9.262      6.000  37000.000     10.000    41.2537   -12.1142  -120.0284    -0.0975     1.9545     1.0040    -3.9990    20.6266    41.2566     4.6044    14.6405    14.6385     0.0020   295.0000     4.2345     5.425
      7     1.9798     1.9802     1.9800      9.267     10.000  37000.000     10.000    41.2537   -12.3671  -120.5353    -0.0975     1.9545     1.0040    -3.9990    20.6266    41.2566     4.6162    14.6405    14.6385     0.0020   295.0000     4.2318     5.444
      8     1.9848     1.9852     1.9850      9.196     95.000  37000.000     10.000    41.2537   -12.6220  -121.0452    -0.0975     1.9545     1.0040    -3.9990    20.6266    41.2566     4.6278    14.6405    14.6385     0.0020   295.0000     4.2339     5.440
      9     1.9899     1.9903     1.9900      9.237    167.000  37000.000     10.000    41.2537   -12.8780  -121.5589    -0.0975     1.9545     1.0040    -3.9990    20.6266    41.2566     4.6395    14.6405    14.6385     0.0020   295.0000     4.2337     5.440
     10     1.9948     1.9952     1.9949      9.286    273.000  37000.000     10.000    41.2537   -13.1339  -122.0708    -0.0975     1.9545     1.0040    -3.9990    20.6266    41.2566     4.6511    14.6405    14.6385     0.0020   295.0000     4.2383     5.440
     11     1.9998     2.0002     2.0000      9.327    369.000  37000.000     10.000    41.2537   -13.3967  -122.5924    -0.0975     1.9545     1.0040    -3.9990    20.6266    41.2566     4.6627    14.6405    14.6385     0.0020   295.0000     4.2397     5.430
     12     2.0048     2.0051     2.0050      9.279    349.000  37000.000     10.000    41.2537   -13.6604  -123.1190    -0.0975     1.9545     1.0040    -3.9990    20.6266    41.2566     4.6744    14.6405    14.6385     0.0020   295.0000     4.2353     5.439
     13     2.0098     2.0102     2.0100      9.230    296.000  37000.000     10.000    41.2537   -13.9242  -123.6485    -0.0975     1.9545     1.0040    -3.9990    20.6266    41.2566     4.6861    14.6405    14.6385     0.0020   295.0000     4.2304     5.438
     14     2.0148     2.0152     2.0150      9.201    199.000  37000.000     10.000    41.2537   -14.1909  -124.1820    -0.0975     1.9545     1.0040    -3.9990    20.6266    41.2566     4.6977    14.6405    14.6385     0.0020   295.0000     4.2339     5.442
     15     2.0198     2.0202     2.0200      9.278    224.000  37000.000     10.000    41.2537   -14.4606  -124.7223    -0.0975     1.9545     1.0040    -3.9990    20.6266    41.2566     4.7094    14.6405    14.6385     0.0020   295.0000     4.2341     5.443
     16     2.0247     2.0251     2.0250      9.302     49.000  37000.000     10.000    41.2537   -14.7333  -125.2646    -0.0975     1.9545     1.0040    -3.9990    20.6266    41.2566     4.7210    14.6405    14.6385     0.0020   295.0000     4.2464     5.436
     17     2.0298     2.0302     2.0300      9.365      8.000  37000.000     10.000    41.2537   -15.0079  -125.8168    -0.0975     1.9545     1.0040    -3.9990    20.6266    41.2566     4.7327    14.6405    14.6385     0.0020   295.0000     4.2360     5.438
     18     2.0348     2.0352     2.0350      9.285      4.000  37000.000     10.000    41.2537   -15.2835  -126.3680    -0.0975     1.9545     1.0040    -3.9990    20.6266    41.2566     4.7443    14.6405    14.6385     0.0020   295.0000     4.2307     5.439
     19     2.0397     2.0401     2.0401      9.347      3.000  37000.000     10.000    41.2537   -15.5669  -126.9300    -0.0975     1.9545     1.0040    -3.9990    20.6266    41.2566     4.7560    14.6405    14.6385     0.0020   295.0000     4.2333     5.433
     20     2.0448     2.0452     2.0450      9.338      6.000  37000.000     10.000    41.2537   -15.8465  -127.4950    -0.0975     1.9545     1.0040    -3.9990    20.6266    41.2566     4.7677    14.6405    14.6385     0.0020   295.0000     4.2325     5.433
     21     2.0499     2.0502     2.0499      9.210      3.000  37000.000     10.000    41.2537   -16.1309  -128.0658    -0.0975     1.9545     1.0040    -3.9990    20.6266    41.2566     4.7793    14.6405    14.6385     0.0020   295.0000     4.2453     5.431
# Sum of Counts = 2079
# Center of Mass = 2.004013+/-0.062157
# Full Width Half-Maximum = 0.023540+/-0.031827
# 9:12:23 PM  11/10/2003   scan completed.
