# scan = 75
# date = 11/9/2003
# time = 1:35:16 PM
# experiment = TbPtIn single crystal;  100 plane
# experiment_number = 41
# command = scan h 1.94 2.06 .005 k 1.94 2.06 .005 l 1.94 2.06 .005 preset mcu 20
# builtin_command = scan h 1.94 2.06 .005 k 1.94 2.06 .005 l 1.94 2.06 .005 preset mcu 20
# users = O.Garlea, C.Stassis, J.L.Zarestky
# local_contact = J.L.Zarestky
# scan_title = 222 order parameter UP T = 25.0000
# monochromator = PG002
# analyzer = Pg002
# sense = +-+
# collimation = 48-40-40-102
# samplename = TbPtIn
# sampletype = crystal
# samplemosaic = 30.000000
# latticeconstants = 7.554017,7.554017,3.847681,90.000000,90.000000,120.000000
# ubmatrix = -0.008230,-0.004834,0.259516,-0.134256,-0.130074,-0.012979,0.072618,-0.080146,0.005414
# mode = 0
# plane_normal = -0.022217,-0.027363,0.999379
# ubconf = C:\User\exp41\UBConf\UB08Nov2003_100555PM.ini
# preset_type = normal 
# preset_channel = mcu
# preset_value = 20.000000
# def_x = h
# def_y = detector
# col_headers = 
#   Pt.          h          k          l       time   detector    monitor        mcu         m2         s1         s2        sgl        sgu        stl        stu         a1         a2          q         ei         ef          e       temp    coldtip    tsample
      1     1.9400     1.9398     1.9401     18.821      2.000  74000.000     20.000    41.2537    -9.9321  -116.5757     1.2730    -1.5670    -0.0020    -0.0010    20.6267    41.2556     4.5224    14.6405    14.6392     0.0013    25.0000    25.0000    25.188
      2     1.9451     1.9450     1.9450     18.751      3.000  74000.000     20.000    41.2537   -10.1663  -117.0530     1.2730    -1.5670    -0.0020    -0.0010    20.6266    41.2556     4.5340    14.6405    14.6392     0.0013    25.0000    25.0010    25.177
      3     1.9501     1.9499     1.9500     18.737      0.000  74000.000     20.000    41.2537   -10.4085  -117.5353     1.2730    -1.5670    -0.0020    -0.0010    20.6266    41.2556     4.5456    14.6405    14.6392     0.0013    25.0000    25.0140    25.223
      4     1.9550     1.9548     1.9551     18.873      7.000  74000.000     20.000    41.2537   -10.6535  -118.0206     1.2730    -1.5670    -0.0020    -0.0010    20.6266    41.2556     4.5572    14.6405    14.6392     0.0013    25.0000    25.0090    25.238
      5     1.9601     1.9599     1.9600     18.630      3.000  74000.000     20.000    41.2537   -10.8967  -118.5127     1.2730    -1.5670    -0.0020    -0.0010    20.6266    41.2556     4.5690    14.6405    14.6392     0.0013    25.0000    24.9950    25.254
      6     1.9651     1.9649     1.9650     18.740      5.000  74000.000     20.000    41.2537   -11.1427  -119.0038     1.2730    -1.5670    -0.0020    -0.0010    20.6266    41.2556     4.5806    14.6405    14.6392     0.0013    25.0000    25.0110    25.341
      7     1.9701     1.9699     1.9700     18.846      6.000  74000.000     20.000    41.2537   -11.3917  -119.5009     1.2730    -1.5670    -0.0020    -0.0010    20.6266    41.2556     4.5922    14.6405    14.6392     0.0013    25.0000    25.0150    25.269
      8     1.9751     1.9749     1.9750     18.750     34.000  74000.000     20.000    41.2537   -11.6417  -120.0009     1.2730    -1.5670    -0.0020    -0.0010    20.6266    41.2556     4.6039    14.6405    14.6392     0.0013    25.0000    25.0070    25.239
      9     1.9801     1.9799     1.9800     18.774    404.000  74000.000     20.000    41.2537   -11.8947  -120.5068     1.2730    -1.5670    -0.0020    -0.0010    20.6266    41.2556     4.6156    14.6405    14.6392     0.0013    25.0000    24.9960    25.199
     10     1.9852     1.9851     1.9849     18.717   1018.000  74000.000     20.000    41.2537   -12.1467  -121.0186     1.2730    -1.5670    -0.0020    -0.0010    20.6266    41.2556     4.6273    14.6405    14.6392     0.0013    25.0000    24.9980    25.146
     11     1.9901     1.9900     1.9900     18.770   1429.000  74000.000     20.000    41.2537   -12.4055  -121.5304     1.2730    -1.5670    -0.0020    -0.0010    20.6266    41.2556     4.6389    14.6405    14.6392     0.0013    25.0000    25.0070    25.155
     12     1.9950     1.9949     1.9950     18.689   1457.000  74000.000     20.000    41.2537   -12.6634  -122.0432     1.2730    -1.5670    -0.0020    -0.0010    20.6266    41.2556     4.6505    14.6405    14.6392     0.0013    25.0000    25.0160    25.241
     13     2.0001     1.9999     2.0000     18.700   1485.000  74000.000     20.000    41.2537   -12.9222  -122.5639     1.2730    -1.5670    -0.0020    -0.0010    20.6266    41.2556     4.6622    14.6405    14.6392     0.0013    25.0000    25.0010    25.289
     14     2.0051     2.0050     2.0050     18.585   1680.000  74000.000     20.000    41.2537   -13.1850  -123.0904     1.2730    -1.5670    -0.0020    -0.0010    20.6266    41.2556     4.6738    14.6405    14.6392     0.0013    25.0000    25.0010    25.226
     15     2.0101     2.0099     2.0100     18.671   1608.000  74000.000     20.000    41.2537   -13.4518  -123.6200     1.2730    -1.5670    -0.0020    -0.0010    20.6266    41.2556     4.6855    14.6405    14.6392     0.0013    25.0000    25.0110    25.310
     16     2.0150     2.0149     2.0150     18.818   1365.000  74000.000     20.000    41.2537   -13.7185  -124.1524     1.2730    -1.5670    -0.0020    -0.0010    20.6266    41.2556     4.6971    14.6405    14.6392     0.0013    25.0000    25.0070    25.280
     17     2.0201     2.0200     2.0200     18.912    425.000  74000.000     20.000    41.2537   -13.9862  -124.6938     1.2730    -1.5670    -0.0020    -0.0010    20.6266    41.2556     4.7088    14.6405    14.6392     0.0013    25.0000    25.0050    25.197
     18     2.0251     2.0249     2.0250     18.663     28.000  74000.000     20.000    41.2537   -14.2589  -125.2351     1.2730    -1.5670    -0.0020    -0.0010    20.6266    41.2556     4.7204    14.6405    14.6392     0.0013    25.0000    24.9970    25.220
     19     2.0301     2.0300     2.0300     18.695      6.000  74000.000     20.000    41.2537   -14.5325  -125.7853     1.2730    -1.5670    -0.0020    -0.0010    20.6266    41.2556     4.7321    14.6405    14.6392     0.0013    25.0000    25.0000    25.209
     20     2.0351     2.0349     2.0350     18.751      4.000  74000.000     20.000    41.2537   -14.8100  -126.3375     1.2730    -1.5670    -0.0020    -0.0010    20.6266    41.2556     4.7437    14.6405    14.6392     0.0013    25.0000    25.0030    25.270
     21     2.0401     2.0399     2.0400     18.852      1.000  74000.000     20.000    41.2537   -15.0896  -126.8985     1.2730    -1.5670    -0.0020    -0.0010    20.6266    41.2556     4.7554    14.6405    14.6392     0.0013    25.0000    25.0070    25.177
     22     2.0450     2.0448     2.0451     18.717      1.000  74000.000     20.000    41.2537   -15.3740  -127.4625     1.2730    -1.5670    -0.0020    -0.0010    20.6266    41.2556     4.7671    14.6405    14.6392     0.0013    25.0000    25.0090    25.263
     23     2.0500     2.0499     2.0500     18.687      7.000  74000.000     20.000    41.2537   -15.6585  -128.0333     1.2730    -1.5670    -0.0020    -0.0010    20.6266    41.2556     4.7787    14.6405    14.6392     0.0013    25.0000    24.9970    25.266
     24     2.0552     2.0550     2.0549     18.728      1.000  74000.000     20.000    41.2537   -15.9449  -128.6141     1.2730    -1.5670    -0.0020    -0.0010    20.6266    41.2556     4.7905    14.6405    14.6392     0.0013    25.0000    24.9980    25.304
     25     2.0602     2.0600     2.0599     18.822      0.000  74000.000     20.000    41.2537   -16.2352  -129.1928     1.2730    -1.5670    -0.0020    -0.0010    20.6266    41.2556     4.8020    14.6405    14.6392     0.0013    25.0000    25.0080    25.253
# Sum of Counts = 10979
# Center of Mass = 2.000823+/-0.027005
# Full Width Half-Maximum = 0.022247+/-0.016241
# 1:44:24 PM  11/9/2003   scan completed.
