# scan = 192
# date = 11/10/2003
# time = 3:04:31 AM
# experiment = TbPtIn single crystal;  100 plane
# experiment_number = 41
# command = scan h 1.94 2.06 .005 k 1.94 2.06 .005 l 0 preset 2
# builtin_command = scan h 1.94 2.06 .005 k 1.94 2.06 .005 l 0 preset 2
# users = O.Garlea, C.Stassis, J.L.Zarestky
# local_contact = J.L.Zarestky
# scan_title = 220 order parameter DN T = 19.0000
# monochromator = PG002
# analyzer = Pg002
# sense = +-+
# collimation = 48-40-40-102
# samplename = TbPtIn
# sampletype = crystal
# samplemosaic = 30.000000
# latticeconstants = 7.554017,7.554017,3.847681,90.000000,90.000000,120.000000
# ubmatrix = -0.008230,-0.004834,0.259516,-0.134256,-0.130074,-0.012979,0.072618,-0.080146,0.005414
# mode = 0
# plane_normal = -0.022217,-0.027363,0.999379
# ubconf = C:\User\exp41\UBConf\UB08Nov2003_100555PM.ini
# preset_type = normal 
# preset_channel = mcu
# preset_value = 2.000000
# def_x = h
# def_y = detector
# col_headers = 
#   Pt.          h          k          l       time   detector    monitor        mcu         m2         s1         s2        sgl        sgu        stl        stu         a1         a2          q         ei         ef          e       temp    coldtip    tsample
      1     1.9401     1.9399     0.0000      1.864      0.000   7400.000      2.000    41.2537    55.4478   -74.7578     1.2730    -1.5670    -0.0020    -0.0010    20.6266    41.2556     3.2273    14.6405    14.6392     0.0013    19.0000    19.0100    18.964
      2     1.9450     1.9449     0.0001      1.877      0.000   7400.000      2.000    41.2537    55.3346   -74.9802     1.2730    -1.5670    -0.0020    -0.0010    20.6266    41.2556     3.2355    14.6405    14.6392     0.0013    19.0000    19.0100    18.964
      3     1.9501     1.9499    -0.0001      1.882      0.000   7400.000      2.000    41.2537    55.2244   -75.2085     1.2730    -1.5670    -0.0020    -0.0010    20.6266    41.2556     3.2439    14.6405    14.6392     0.0013    19.0000    19.0100    18.964
      4     1.9551     1.9549     0.0000      1.832      0.000   7400.000      2.000    41.2537    55.1093   -75.4349     1.2730    -1.5670    -0.0020    -0.0010    20.6266    41.2556     3.2522    14.6405    14.6392     0.0013    19.0000    19.0070    18.946
      5     1.9601     1.9599     0.0000      1.874      0.000   7400.000      2.000    41.2537    54.9961   -75.6623     1.2730    -1.5670    -0.0020    -0.0010    20.6266    41.2556     3.2605    14.6405    14.6392     0.0013    19.0000    19.0070    18.946
      6     1.9650     1.9649    -0.0000      1.849      0.000   7400.000      2.000    41.2537    54.8839   -75.8877     1.2730    -1.5670    -0.0020    -0.0010    20.6266    41.2556     3.2688    14.6405    14.6392     0.0013    19.0000    19.0110    18.951
      7     1.9701     1.9700    -0.0001      1.839      1.000   7400.000      2.000    41.2537    54.7687   -76.1200     1.2730    -1.5670    -0.0020    -0.0010    20.6266    41.2556     3.2773    14.6405    14.6392     0.0013    19.0000    19.0110    18.951
      8     1.9751     1.9749    -0.0000      1.858     12.000   7400.000      2.000    41.2537    54.6555   -76.3444     1.2730    -1.5670    -0.0020    -0.0010    20.6266    41.2556     3.2855    14.6405    14.6392     0.0013    19.0000    19.0110    18.951
      9     1.9801     1.9799     0.0000      1.875     60.000   7400.000      2.000    41.2537    54.5404   -76.5717     1.2730    -1.5670    -0.0020    -0.0010    20.6266    41.2556     3.2938    14.6405    14.6392     0.0013    19.0000    19.0120    18.923
     10     1.9851     1.9849    -0.0000      1.849    163.000   7400.000      2.000    41.2537    54.4272   -76.8011     1.2730    -1.5670    -0.0020    -0.0010    20.6266    41.2556     3.3021    14.6405    14.6392     0.0013    19.0000    19.0120    18.923
     11     1.9901     1.9899     0.0000      1.857    304.000   7400.000      2.000    41.2537    54.3110   -77.0304     1.2730    -1.5670    -0.0020    -0.0010    20.6266    41.2556     3.3104    14.6405    14.6392     0.0013    19.0000    19.0120    18.923
     12     1.9951     1.9949    -0.0000      1.878    495.000   7400.000      2.000    41.2537    54.1978   -77.2597     1.2730    -1.5670    -0.0020    -0.0010    20.6266    41.2556     3.3187    14.6405    14.6392     0.0013    19.0000    19.0130    18.926
     13     2.0001     1.9999     0.0000      1.833    516.000   7400.000      2.000    41.2537    54.0827   -77.4891     1.2730    -1.5670    -0.0020    -0.0010    20.6266    41.2556     3.3271    14.6405    14.6392     0.0013    19.0000    19.0130    18.926
     14     2.0051     2.0049     0.0000      1.841    503.000   7400.000      2.000    41.2537    53.9675   -77.7194     1.2730    -1.5670    -0.0020    -0.0010    20.6266    41.2556     3.3354    14.6405    14.6392     0.0013    19.0000    19.0090    18.941
     15     2.0101     2.0099    -0.0000      1.864    424.000   7400.000      2.000    41.2537    53.8533   -77.9497     1.2730    -1.5670    -0.0020    -0.0010    20.6266    41.2556     3.3437    14.6405    14.6392     0.0013    19.0000    19.0090    18.941
     16     2.0151     2.0149    -0.0000      1.885    220.000   7400.000      2.000    41.2537    53.7372   -78.1820     1.2730    -1.5670    -0.0020    -0.0010    20.6266    41.2556     3.3521    14.6405    14.6392     0.0013    19.0000    19.0090    18.941
     17     2.0201     2.0199     0.0000      1.847     55.000   7400.000      2.000    41.2537    53.6211   -78.4123     1.2730    -1.5670    -0.0020    -0.0010    20.6266    41.2556     3.3603    14.6405    14.6392     0.0013    19.0000    19.0080    18.914
     18     2.0251     2.0249    -0.0000      1.869     10.000   7400.000      2.000    41.2537    53.5059   -78.6446     1.2730    -1.5670    -0.0020    -0.0010    20.6266    41.2556     3.3687    14.6405    14.6392     0.0013    19.0000    19.0080    18.914
     19     2.0301     2.0299     0.0000      1.840      0.000   7400.000      2.000    41.2537    53.3898   -78.8749     1.2730    -1.5670    -0.0020    -0.0010    20.6266    41.2556     3.3769    14.6405    14.6392     0.0013    19.0000    19.0080    18.914
     20     2.0351     2.0349     0.0000      1.850      2.000   7400.000      2.000    41.2537    53.2726   -79.1072     1.2730    -1.5670    -0.0020    -0.0010    20.6266    41.2556     3.3853    14.6405    14.6392     0.0013    19.0000    18.9990    18.984
     21     2.0401     2.0399    -0.0000      1.839      0.000   7400.000      2.000    41.2537    53.1575   -79.3414     1.2730    -1.5670    -0.0020    -0.0010    20.6266    41.2556     3.3936    14.6405    14.6392     0.0013    19.0000    18.9990    18.984
     22     2.0451     2.0449    -0.0000      1.880      0.000   7400.000      2.000    41.2537    53.0413   -79.5747     1.2730    -1.5670    -0.0020    -0.0010    20.6266    41.2556     3.4020    14.6405    14.6392     0.0013    19.0000    19.0080    18.923
     23     2.0501     2.0499    -0.0000      1.846      0.000   7400.000      2.000    41.2537    52.9252   -79.8060     1.2730    -1.5670    -0.0020    -0.0010    20.6266    41.2556     3.4102    14.6405    14.6392     0.0013    19.0000    19.0080    18.923
     24     2.0551     2.0549    -0.0000      1.858      0.000   7400.000      2.000    41.2537    52.8071   -80.0422     1.2730    -1.5670    -0.0020    -0.0010    20.6266    41.2556     3.4186    14.6405    14.6392     0.0013    19.0000    19.0080    18.923
     25     2.0601     2.0599    -0.0000      1.859      1.000   7400.000      2.000    41.2537    52.6900   -80.2755     1.2730    -1.5670    -0.0020    -0.0010    20.6266    41.2556     3.4269    14.6405    14.6392     0.0013    19.0000    19.0150    18.922
# Sum of Counts = 2766
# Center of Mass = 2.000839+/-0.053803
# Full Width Half-Maximum = 0.018980+/-0.031260
# 3:06:37 AM  11/10/2003   scan completed.
