# scan = 167
# date = 11/10/2003
# time = 12:14:51 AM
# experiment = TbPtIn single crystal;  100 plane
# experiment_number = 41
# command = scan h 1.94 2.06 .005 k 1.94 2.06 .005 l 0 preset 2
# builtin_command = scan h 1.94 2.06 .005 k 1.94 2.06 .005 l 0 preset 2
# users = O.Garlea, C.Stassis, J.L.Zarestky
# local_contact = J.L.Zarestky
# scan_title = 220 order parameter DN T = 34.0000
# monochromator = PG002
# analyzer = Pg002
# sense = +-+
# collimation = 48-40-40-102
# samplename = TbPtIn
# sampletype = crystal
# samplemosaic = 30.000000
# latticeconstants = 7.554017,7.554017,3.847681,90.000000,90.000000,120.000000
# ubmatrix = -0.008230,-0.004834,0.259516,-0.134256,-0.130074,-0.012979,0.072618,-0.080146,0.005414
# mode = 0
# plane_normal = -0.022217,-0.027363,0.999379
# ubconf = C:\User\exp41\UBConf\UB08Nov2003_100555PM.ini
# preset_type = normal 
# preset_channel = mcu
# preset_value = 2.000000
# def_x = h
# def_y = detector
# col_headers = 
#   Pt.          h          k          l       time   detector    monitor        mcu         m2         s1         s2        sgl        sgu        stl        stu         a1         a2          q         ei         ef          e       temp    coldtip    tsample
      1     1.9401     1.9399     0.0000      1.829      0.000   7400.000      2.000    41.2537    55.4478   -74.7578     1.2730    -1.5670    -0.0020    -0.0010    20.6267    41.2556     3.2273    14.6405    14.6392     0.0013    34.0000    33.9660    41.102
      2     1.9450     1.9449     0.0001      1.883      0.000   7400.000      2.000    41.2537    55.3337   -74.9802     1.2730    -1.5670    -0.0020    -0.0010    20.6267    41.2556     3.2355    14.6405    14.6392     0.0013    34.0000    33.9660    41.102
      3     1.9501     1.9499    -0.0001      1.850      0.000   7400.000      2.000    41.2537    55.2254   -75.2085     1.2730    -1.5670    -0.0020    -0.0010    20.6267    41.2556     3.2439    14.6405    14.6392     0.0013    34.0000    33.9660    41.102
      4     1.9551     1.9549    -0.0000      1.892      1.000   7400.000      2.000    41.2537    55.1102   -75.4349     1.2730    -1.5670    -0.0020    -0.0010    20.6267    41.2556     3.2522    14.6405    14.6392     0.0013    34.0000    33.9470    37.859
      5     1.9601     1.9599     0.0000      1.866      1.000   7400.000      2.000    41.2537    54.9961   -75.6623     1.2730    -1.5670    -0.0020    -0.0010    20.6267    41.2556     3.2605    14.6405    14.6392     0.0013    34.0000    33.9470    37.859
      6     1.9650     1.9649    -0.0000      1.869      2.000   7400.000      2.000    41.2537    54.8839   -75.8877     1.2730    -1.5670    -0.0020    -0.0010    20.6267    41.2556     3.2688    14.6405    14.6392     0.0013    34.0000    33.9470    37.859
      7     1.9701     1.9700    -0.0000      1.867      2.000   7400.000      2.000    41.2537    54.7677   -76.1200     1.2730    -1.5670    -0.0020    -0.0010    20.6267    41.2556     3.2773    14.6405    14.6392     0.0013    34.0000    33.9980    41.380
      8     1.9751     1.9749    -0.0001      1.888     14.000   7400.000      2.000    41.2537    54.6565   -76.3444     1.2730    -1.5670    -0.0020    -0.0010    20.6267    41.2556     3.2855    14.6405    14.6392     0.0013    34.0000    33.9980    41.380
      9     1.9801     1.9799     0.0000      1.872     48.000   7400.000      2.000    41.2537    54.5404   -76.5727     1.2730    -1.5670    -0.0020    -0.0010    20.6267    41.2556     3.2938    14.6405    14.6392     0.0013    34.0000    33.9990    41.446
     10     1.9851     1.9849    -0.0000      1.861    165.000   7400.000      2.000    41.2537    54.4272   -76.8011     1.2730    -1.5670    -0.0020    -0.0010    20.6267    41.2556     3.3021    14.6405    14.6392     0.0013    34.0000    33.9990    41.446
     11     1.9901     1.9899     0.0000      1.849    325.000   7400.000      2.000    41.2537    54.3120   -77.0294     1.2730    -1.5670    -0.0020    -0.0010    20.6267    41.2556     3.3104    14.6405    14.6392     0.0013    34.0000    33.9990    41.446
     12     1.9951     1.9949     0.0000      1.847    447.000   7400.000      2.000    41.2537    54.1969   -77.2607     1.2730    -1.5670    -0.0020    -0.0010    20.6267    41.2556     3.3188    14.6405    14.6392     0.0013    34.0000    33.9970    40.150
     13     2.0001     1.9999     0.0000      1.846    542.000   7400.000      2.000    41.2537    54.0827   -77.4891     1.2730    -1.5670    -0.0020    -0.0010    20.6267    41.2556     3.3271    14.6405    14.6392     0.0013    34.0000    33.9970    40.150
     14     2.0051     2.0049     0.0000      1.843    492.000   7400.000      2.000    41.2537    53.9675   -77.7194     1.2730    -1.5670    -0.0020    -0.0010    20.6267    41.2556     3.3354    14.6405    14.6392     0.0013    34.0000    33.9970    40.150
     15     2.0101     2.0099     0.0000      1.838    430.000   7400.000      2.000    41.2537    53.8524   -77.9497     1.2730    -1.5670    -0.0020    -0.0010    20.6267    41.2556     3.3437    14.6405    14.6392     0.0013    34.0000    34.0230    42.046
     16     2.0151     2.0149    -0.0000      1.870    210.000   7400.000      2.000    41.2537    53.7372   -78.1820     1.2730    -1.5670    -0.0020    -0.0010    20.6267    41.2556     3.3521    14.6405    14.6392     0.0013    34.0000    34.0230    42.046
     17     2.0201     2.0199     0.0000      1.822     52.000   7400.000      2.000    41.2537    53.6211   -78.4123     1.2730    -1.5670    -0.0020    -0.0010    20.6267    41.2556     3.3603    14.6405    14.6392     0.0013    34.0000    34.0000    40.568
     18     2.0251     2.0249    -0.0000      1.872      8.000   7400.000      2.000    41.2537    53.5059   -78.6446     1.2730    -1.5670    -0.0020    -0.0010    20.6267    41.2556     3.3687    14.6405    14.6392     0.0013    34.0000    34.0000    40.568
     19     2.0301     2.0299     0.0000      1.875      3.000   7400.000      2.000    41.2537    53.3898   -78.8749     1.2730    -1.5670    -0.0020    -0.0010    20.6267    41.2556     3.3769    14.6405    14.6392     0.0013    34.0000    34.0000    40.568
     20     2.0351     2.0349    -0.0000      1.877      1.000   7400.000      2.000    41.2537    53.2746   -79.1072     1.2730    -1.5670    -0.0020    -0.0010    20.6267    41.2556     3.3853    14.6405    14.6392     0.0013    34.0000    34.0040    40.413
     21     2.0401     2.0399    -0.0000      1.906      0.000   7400.000      2.000    41.2537    53.1575   -79.3414     1.2730    -1.5670    -0.0020    -0.0010    20.6267    41.2556     3.3936    14.6405    14.6392     0.0013    34.0000    34.0040    40.413
     22     2.0451     2.0449     0.0000      1.854      1.000   7400.000      2.000    41.2537    53.0404   -79.5737     1.2730    -1.5670    -0.0020    -0.0010    20.6267    41.2556     3.4019    14.6405    14.6392     0.0013    34.0000    34.0040    40.413
     23     2.0501     2.0499    -0.0000      1.884      0.000   7400.000      2.000    41.2537    52.9242   -79.8070     1.2730    -1.5670    -0.0020    -0.0010    20.6267    41.2556     3.4102    14.6405    14.6392     0.0013    34.0000    34.0230    41.678
     24     2.0551     2.0549    -0.0000      1.882      0.000   7400.000      2.000    41.2537    52.8081   -80.0412     1.2730    -1.5670    -0.0020    -0.0010    20.6267    41.2556     3.4186    14.6405    14.6392     0.0013    34.0000    34.0230    41.678
     25     2.0601     2.0599    -0.0000      1.853      0.000   7400.000      2.000    41.2537    52.6900   -80.2755     1.2730    -1.5670    -0.0020    -0.0010    20.6267    41.2556     3.4269    14.6405    14.6392     0.0013    34.0000    34.0060    41.240
# Sum of Counts = 2744
# Center of Mass = 2.000769+/-0.054016
# Full Width Half-Maximum = 0.019079+/-0.031200
# 12:16:56 AM  11/10/2003   scan completed.
