# scan = 145
# date = 11/9/2003
# time = 9:42:02 PM
# experiment = TbPtIn single crystal;  100 plane
# experiment_number = 41
# command = scan h 1.94 2.06 .005 k 1.94 2.06 .005 l 1.94 2.06 .005 preset mcu 20
# builtin_command = scan h 1.94 2.06 .005 k 1.94 2.06 .005 l 1.94 2.06 .005 preset mcu 20
# users = O.Garlea, C.Stassis, J.L.Zarestky
# local_contact = J.L.Zarestky
# scan_title = 222 order parameter DN T = 49.0000
# monochromator = PG002
# analyzer = Pg002
# sense = +-+
# collimation = 48-40-40-102
# samplename = TbPtIn
# sampletype = crystal
# samplemosaic = 30.000000
# latticeconstants = 7.554017,7.554017,3.847681,90.000000,90.000000,120.000000
# ubmatrix = -0.008230,-0.004834,0.259516,-0.134256,-0.130074,-0.012979,0.072618,-0.080146,0.005414
# mode = 0
# plane_normal = -0.022217,-0.027363,0.999379
# ubconf = C:\User\exp41\UBConf\UB08Nov2003_100555PM.ini
# preset_type = normal 
# preset_channel = mcu
# preset_value = 20.000000
# def_x = h
# def_y = detector
# col_headers = 
#   Pt.          h          k          l       time   detector    monitor        mcu         m2         s1         s2        sgl        sgu        stl        stu         a1         a2          q         ei         ef          e       temp    coldtip    tsample
      1     1.9400     1.9398     1.9401     18.787      4.000  74000.000     20.000    41.2537    -9.9321  -116.5757     1.2730    -1.5670    -0.0020    -0.0010    20.6267    41.2556     4.5224    14.6405    14.6392     0.0013    49.0000    48.9850    56.044
      2     1.9452     1.9450     1.9449     18.715      1.000  74000.000     20.000    41.2537   -10.1654  -117.0530     1.2730    -1.5670    -0.0020    -0.0010    20.6266    41.2556     4.5340    14.6405    14.6392     0.0013    49.0000    48.9920    55.295
      3     1.9501     1.9499     1.9500     18.683      3.000  74000.000     20.000    41.2537   -10.4094  -117.5363     1.2730    -1.5670    -0.0020    -0.0010    20.6266    41.2556     4.5456    14.6405    14.6392     0.0013    49.0000    48.9940    55.455
      4     1.9550     1.9549     1.9550     18.681      2.000  74000.000     20.000    41.2537   -10.6526  -118.0206     1.2730    -1.5670    -0.0020    -0.0010    20.6266    41.2556     4.5572    14.6405    14.6392     0.0013    49.0000    49.0020    55.598
      5     1.9601     1.9599     1.9600     18.738      2.000  74000.000     20.000    41.2537   -10.8967  -118.5127     1.2730    -1.5670    -0.0020    -0.0010    20.6266    41.2556     4.5690    14.6405    14.6392     0.0013    49.0000    49.0020    55.285
      6     1.9651     1.9649     1.9650     18.628      7.000  74000.000     20.000    41.2537   -11.1417  -119.0038     1.2730    -1.5670    -0.0020    -0.0010    20.6266    41.2556     4.5806    14.6405    14.6392     0.0013    49.0000    48.9900    53.838
      7     1.9701     1.9699     1.9700     18.576      5.000  74000.000     20.000    41.2537   -11.3927  -119.5019     1.2730    -1.5670    -0.0020    -0.0010    20.6266    41.2556     4.5922    14.6405    14.6392     0.0013    49.0000    49.0010    53.435
      8     1.9750     1.9749     1.9750     18.631     51.000  74000.000     20.000    41.2537   -11.6417  -119.9999     1.2730    -1.5670    -0.0020    -0.0010    20.6266    41.2556     4.6038    14.6405    14.6392     0.0013    49.0000    49.0320    56.804
      9     1.9801     1.9799     1.9800     18.680    528.000  74000.000     20.000    41.2537   -11.8947  -120.5078     1.2730    -1.5670    -0.0020    -0.0010    20.6266    41.2556     4.6156    14.6405    14.6392     0.0013    49.0000    49.0110    55.943
     10     1.9852     1.9851     1.9849     18.629   1193.000  74000.000     20.000    41.2537   -12.1467  -121.0186     1.2730    -1.5670    -0.0020    -0.0010    20.6266    41.2556     4.6273    14.6405    14.6392     0.0013    49.0000    49.0090    56.932
     11     1.9901     1.9900     1.9900     18.654   1359.000  74000.000     20.000    41.2537   -12.4055  -121.5304     1.2730    -1.5670    -0.0020    -0.0010    20.6266    41.2556     4.6389    14.6405    14.6392     0.0013    49.0000    49.0070    57.407
     12     1.9950     1.9949     1.9950     18.493   1266.000  74000.000     20.000    41.2537   -12.6634  -122.0432     1.2730    -1.5670    -0.0020    -0.0010    20.6266    41.2556     4.6505    14.6405    14.6392     0.0013    49.0000    48.9840    56.029
     13     2.0001     2.0000     2.0000     18.624   1559.000  74000.000     20.000    41.2537   -12.9222  -122.5648     1.2730    -1.5670    -0.0020    -0.0010    20.6266    41.2556     4.6622    14.6405    14.6392     0.0013    49.0000    48.9900    57.261
     14     2.0051     2.0049     2.0050     18.687   1623.000  74000.000     20.000    41.2537   -13.1850  -123.0895     1.2730    -1.5670    -0.0020    -0.0010    20.6266    41.2556     4.6738    14.6405    14.6392     0.0013    49.0000    48.9950    56.680
     15     2.0101     2.0099     2.0100     18.695   1565.000  74000.000     20.000    41.2537   -13.4518  -123.6200     1.2730    -1.5670    -0.0020    -0.0010    20.6266    41.2556     4.6855    14.6405    14.6392     0.0013    49.0000    48.9860    55.700
     16     2.0151     2.0149     2.0150     18.698   1162.000  74000.000     20.000    41.2537   -13.7175  -124.1524     1.2730    -1.5670    -0.0020    -0.0010    20.6266    41.2556     4.6971    14.6405    14.6392     0.0013    49.0000    48.9900    51.479
     17     2.0201     2.0200     2.0200     18.751    246.000  74000.000     20.000    41.2537   -13.9862  -124.6928     1.2730    -1.5670    -0.0020    -0.0010    20.6266    41.2556     4.7088    14.6405    14.6392     0.0013    49.0000    48.9860    52.547
     18     2.0251     2.0249     2.0250     18.683     11.000  74000.000     20.000    41.2537   -14.2589  -125.2351     1.2730    -1.5670    -0.0020    -0.0010    20.6266    41.2556     4.7204    14.6405    14.6392     0.0013    49.0000    49.0250    55.904
     19     2.0301     2.0299     2.0300     18.672      5.000  74000.000     20.000    41.2537   -14.5335  -125.7863     1.2730    -1.5670    -0.0020    -0.0010    20.6266    41.2556     4.7321    14.6405    14.6392     0.0013    49.0000    49.0150    55.434
     20     2.0351     2.0349     2.0350     18.712      2.000  74000.000     20.000    41.2537   -14.8091  -126.3365     1.2730    -1.5670    -0.0020    -0.0010    20.6266    41.2556     4.7437    14.6405    14.6392     0.0013    49.0000    49.0350    57.646
     21     2.0400     2.0399     2.0400     18.563      1.000  74000.000     20.000    41.2537   -15.0906  -126.8975     1.2730    -1.5670    -0.0020    -0.0010    20.6266    41.2556     4.7554    14.6405    14.6392     0.0013    49.0000    48.9850    55.381
     22     2.0451     2.0449     2.0450     18.665      2.000  74000.000     20.000    41.2537   -15.3730  -127.4635     1.2730    -1.5670    -0.0020    -0.0010    20.6266    41.2556     4.7671    14.6405    14.6392     0.0013    49.0000    48.9900    55.488
     23     2.0500     2.0499     2.0500     18.669      2.000  74000.000     20.000    41.2537   -15.6585  -128.0333     1.2730    -1.5670    -0.0020    -0.0010    20.6266    41.2556     4.7787    14.6405    14.6392     0.0013    49.0000    48.9840    56.884
     24     2.0553     2.0551     2.0549     18.584      7.000  74000.000     20.000    41.2537   -15.9439  -128.6141     1.2730    -1.5670    -0.0020    -0.0010    20.6266    41.2556     4.7905    14.6405    14.6392     0.0013    49.0000    48.9740    55.433
     25     2.0602     2.0600     2.0599     18.603      2.000  74000.000     20.000    41.2537   -16.2352  -129.1928     1.2730    -1.5670    -0.0020    -0.0010    20.6266    41.2556     4.8020    14.6405    14.6392     0.0013    49.0000    49.0000    56.357
# Sum of Counts = 10608
# Center of Mass = 1.999786+/-0.027459
# Full Width Half-Maximum = 0.022405+/-0.016662
# 9:51:08 PM  11/9/2003   scan completed.
