# scan = 105
# date = 11/9/2003
# time = 5:03:51 PM
# experiment = TbPtIn single crystal;  100 plane
# experiment_number = 41
# command = scan h 1.94 2.06 .005 k 1.94 2.06 .005 l 1.94 2.06 .005 preset mcu 20
# builtin_command = scan h 1.94 2.06 .005 k 1.94 2.06 .005 l 1.94 2.06 .005 preset mcu 20
# users = O.Garlea, C.Stassis, J.L.Zarestky
# local_contact = J.L.Zarestky
# scan_title = 222 order parameter UP T = 43.0000
# monochromator = PG002
# analyzer = Pg002
# sense = +-+
# collimation = 48-40-40-102
# samplename = TbPtIn
# sampletype = crystal
# samplemosaic = 30.000000
# latticeconstants = 7.554017,7.554017,3.847681,90.000000,90.000000,120.000000
# ubmatrix = -0.008230,-0.004834,0.259516,-0.134256,-0.130074,-0.012979,0.072618,-0.080146,0.005414
# mode = 0
# plane_normal = -0.022217,-0.027363,0.999379
# ubconf = C:\User\exp41\UBConf\UB08Nov2003_100555PM.ini
# preset_type = normal 
# preset_channel = mcu
# preset_value = 20.000000
# def_x = h
# def_y = detector
# col_headers = 
#   Pt.          h          k          l       time   detector    monitor        mcu         m2         s1         s2        sgl        sgu        stl        stu         a1         a2          q         ei         ef          e       temp    coldtip    tsample
      1     1.9400     1.9398     1.9401     18.879      2.000  74000.000     20.000    41.2537    -9.9321  -116.5747     1.2730    -1.5670    -0.0020    -0.0010    20.6267    41.2556     4.5223    14.6405    14.6392     0.0013    43.0000    43.0150    49.410
      2     1.9451     1.9450     1.9449     18.732      0.000  74000.000     20.000    41.2537   -10.1654  -117.0520     1.2730    -1.5670    -0.0020    -0.0010    20.6267    41.2556     4.5339    14.6405    14.6392     0.0013    43.0000    43.0160    49.322
      3     1.9501     1.9499     1.9500     18.787      2.000  74000.000     20.000    41.2537   -10.4094  -117.5363     1.2730    -1.5670    -0.0020    -0.0010    20.6266    41.2556     4.5456    14.6405    14.6392     0.0013    43.0000    43.0220    48.962
      4     1.9550     1.9548     1.9550     18.817      2.000  74000.000     20.000    41.2537   -10.6526  -118.0196     1.2730    -1.5670    -0.0020    -0.0010    20.6266    41.2556     4.5572    14.6405    14.6392     0.0013    43.0000    43.0080    48.843
      5     1.9601     1.9600     1.9600     18.699      3.000  74000.000     20.000    41.2537   -10.8967  -118.5137     1.2730    -1.5670    -0.0020    -0.0010    20.6266    41.2556     4.5690    14.6405    14.6392     0.0013    43.0000    43.0070    49.116
      6     1.9651     1.9649     1.9650     18.836      8.000  74000.000     20.000    41.2537   -11.1417  -119.0028     1.2730    -1.5670    -0.0020    -0.0010    20.6266    41.2556     4.5805    14.6405    14.6392     0.0013    43.0000    42.9970    48.250
      7     1.9700     1.9699     1.9700     18.494      2.000  74000.000     20.000    41.2537   -11.3927  -119.5009     1.2730    -1.5670    -0.0020    -0.0010    20.6266    41.2556     4.5922    14.6405    14.6392     0.0013    43.0000    42.9770    48.130
      8     1.9751     1.9749     1.9750     18.545     37.000  74000.000     20.000    41.2537   -11.6417  -120.0009     1.2730    -1.5670    -0.0020    -0.0010    20.6266    41.2556     4.6039    14.6405    14.6392     0.0013    43.0000    42.9960    49.527
      9     1.9801     1.9800     1.9800     18.586    508.000  74000.000     20.000    41.2537   -11.8937  -120.5078     1.2730    -1.5670    -0.0020    -0.0010    20.6266    41.2556     4.6156    14.6405    14.6392     0.0013    43.0000    42.9730    47.801
     10     1.9852     1.9850     1.9850     18.644   1184.000  74000.000     20.000    41.2537   -12.1476  -121.0176     1.2730    -1.5670    -0.0020    -0.0010    20.6266    41.2556     4.6273    14.6405    14.6392     0.0013    43.0000    42.9930    48.889
     11     1.9901     1.9899     1.9901     18.748   1390.000  74000.000     20.000    41.2537   -12.4065  -121.5294     1.2730    -1.5670    -0.0020    -0.0010    20.6266    41.2556     4.6389    14.6405    14.6392     0.0013    43.0000    43.0430    49.629
     12     1.9951     1.9949     1.9950     18.871   1434.000  74000.000     20.000    41.2537   -12.6624  -122.0442     1.2730    -1.5670    -0.0020    -0.0010    20.6266    41.2556     4.6505    14.6405    14.6392     0.0013    43.0000    43.0340    48.869
     13     2.0001     1.9999     2.0000     18.612   1632.000  74000.000     20.000    41.2537   -12.9222  -122.5639     1.2730    -1.5670    -0.0020    -0.0010    20.6266    41.2556     4.6622    14.6405    14.6392     0.0013    43.0000    43.0240    49.226
     14     2.0051     2.0050     2.0050     18.601   1769.000  74000.000     20.000    41.2537   -13.1850  -123.0904     1.2730    -1.5670    -0.0020    -0.0010    20.6266    41.2556     4.6738    14.6405    14.6392     0.0013    43.0000    43.0010    49.983
     15     2.0101     2.0099     2.0100     18.695   1540.000  74000.000     20.000    41.2537   -13.4518  -123.6200     1.2730    -1.5670    -0.0020    -0.0010    20.6266    41.2556     4.6855    14.6405    14.6392     0.0013    43.0000    42.9670    48.474
     16     2.0150     2.0149     2.0150     18.676   1156.000  74000.000     20.000    41.2537   -13.7185  -124.1524     1.2730    -1.5670    -0.0020    -0.0010    20.6266    41.2556     4.6971    14.6405    14.6392     0.0013    43.0000    42.9720    48.152
     17     2.0201     2.0200     2.0200     18.681    260.000  74000.000     20.000    41.2537   -13.9862  -124.6928     1.2730    -1.5670    -0.0020    -0.0010    20.6266    41.2556     4.7088    14.6405    14.6392     0.0013    43.0000    42.9870    48.650
     18     2.0251     2.0249     2.0250     18.822     16.000  74000.000     20.000    41.2537   -14.2589  -125.2351     1.2730    -1.5670    -0.0020    -0.0010    20.6266    41.2556     4.7204    14.6405    14.6392     0.0013    43.0000    43.0170    49.407
     19     2.0301     2.0299     2.0300     18.645      9.000  74000.000     20.000    41.2537   -14.5335  -125.7853     1.2730    -1.5670    -0.0020    -0.0010    20.6266    41.2556     4.7321    14.6405    14.6392     0.0013    43.0000    42.9880    46.434
     20     2.0351     2.0349     2.0350     18.619      3.000  74000.000     20.000    41.2537   -14.8091  -126.3375     1.2730    -1.5670    -0.0020    -0.0010    20.6266    41.2556     4.7437    14.6405    14.6392     0.0013    43.0000    43.0260    50.623
     21     2.0401     2.0399     2.0400     18.728      3.000  74000.000     20.000    41.2537   -15.0906  -126.8985     1.2730    -1.5670    -0.0020    -0.0010    20.6266    41.2556     4.7554    14.6405    14.6392     0.0013    43.0000    43.0100    49.519
     22     2.0450     2.0449     2.0450     18.858      4.000  74000.000     20.000    41.2537   -15.3730  -127.4625     1.2730    -1.5670    -0.0020    -0.0010    20.6266    41.2556     4.7671    14.6405    14.6392     0.0013    43.0000    42.9850    48.997
     23     2.0500     2.0499     2.0500     18.578      2.000  74000.000     20.000    41.2537   -15.6585  -128.0333     1.2730    -1.5670    -0.0020    -0.0010    20.6266    41.2556     4.7787    14.6405    14.6392     0.0013    43.0000    42.9900    49.487
     24     2.0552     2.0550     2.0549     18.896      1.000  74000.000     20.000    41.2537   -15.9449  -128.6131     1.2730    -1.5670    -0.0020    -0.0010    20.6266    41.2556     4.7904    14.6405    14.6392     0.0013    43.0000    42.9720    49.047
     25     2.0601     2.0600     2.0599     18.672      2.000  74000.000     20.000    41.2537   -16.2352  -129.1918     1.2730    -1.5670    -0.0020    -0.0010    20.6266    41.2556     4.8020    14.6405    14.6392     0.0013    43.0000    42.9860    48.987
# Sum of Counts = 10969
# Center of Mass = 1.999868+/-0.027004
# Full Width Half-Maximum = 0.021814+/-0.016294
# 5:12:58 PM  11/9/2003   scan completed.
