# scan = 160
# date = 11/9/2003
# time = 11:24:27 PM
# experiment = TbPtIn single crystal;  100 plane
# experiment_number = 41
# command = scan h 1.94 2.06 .005 k 1.94 2.06 .005 l 1.94 2.06 .005 preset mcu 20
# builtin_command = scan h 1.94 2.06 .005 k 1.94 2.06 .005 l 1.94 2.06 .005 preset mcu 20
# users = O.Garlea, C.Stassis, J.L.Zarestky
# local_contact = J.L.Zarestky
# scan_title = 222 order parameter DN T = 40.0000
# monochromator = PG002
# analyzer = Pg002
# sense = +-+
# collimation = 48-40-40-102
# samplename = TbPtIn
# sampletype = crystal
# samplemosaic = 30.000000
# latticeconstants = 7.554017,7.554017,3.847681,90.000000,90.000000,120.000000
# ubmatrix = -0.008230,-0.004834,0.259516,-0.134256,-0.130074,-0.012979,0.072618,-0.080146,0.005414
# mode = 0
# plane_normal = -0.022217,-0.027363,0.999379
# ubconf = C:\User\exp41\UBConf\UB08Nov2003_100555PM.ini
# preset_type = normal 
# preset_channel = mcu
# preset_value = 20.000000
# def_x = h
# def_y = detector
# col_headers = 
#   Pt.          h          k          l       time   detector    monitor        mcu         m2         s1         s2        sgl        sgu        stl        stu         a1         a2          q         ei         ef          e       temp    coldtip    tsample
      1     1.9400     1.9398     1.9401     18.531      4.000  74000.000     20.000    41.2537    -9.9321  -116.5757     1.2730    -1.5670    -0.0020    -0.0010    20.6267    41.2556     4.5224    14.6405    14.6392     0.0013    40.0000    39.9900    46.069
      2     1.9452     1.9450     1.9449     18.505      6.000  74000.000     20.000    41.2537   -10.1654  -117.0530     1.2730    -1.5670    -0.0020    -0.0010    20.6266    41.2556     4.5340    14.6405    14.6392     0.0013    40.0000    39.9940    45.749
      3     1.9501     1.9499     1.9500     18.715      1.000  74000.000     20.000    41.2537   -10.4094  -117.5363     1.2730    -1.5670    -0.0020    -0.0010    20.6266    41.2556     4.5456    14.6405    14.6392     0.0013    40.0000    39.9950    45.853
      4     1.9550     1.9549     1.9550     18.783      3.000  74000.000     20.000    41.2537   -10.6526  -118.0206     1.2730    -1.5670    -0.0020    -0.0010    20.6266    41.2556     4.5572    14.6405    14.6392     0.0013    40.0000    40.0000    45.982
      5     1.9601     1.9599     1.9600     18.561      1.000  74000.000     20.000    41.2537   -10.8967  -118.5127     1.2730    -1.5670    -0.0020    -0.0010    20.6266    41.2556     4.5690    14.6405    14.6392     0.0013    40.0000    40.0290    47.545
      6     1.9651     1.9649     1.9650     18.587      2.000  74000.000     20.000    41.2537   -11.1417  -119.0038     1.2730    -1.5670    -0.0020    -0.0010    20.6266    41.2556     4.5806    14.6405    14.6392     0.0013    40.0000    40.0280    47.871
      7     1.9700     1.9699     1.9700     18.708      5.000  74000.000     20.000    41.2537   -11.3927  -119.5009     1.2730    -1.5670    -0.0020    -0.0010    20.6266    41.2556     4.5922    14.6405    14.6392     0.0013    40.0000    40.0160    46.771
      8     1.9751     1.9749     1.9750     18.696     40.000  74000.000     20.000    41.2537   -11.6407  -119.9999     1.2730    -1.5670    -0.0020    -0.0010    20.6266    41.2556     4.6038    14.6405    14.6392     0.0013    40.0000    40.0040    46.922
      9     1.9801     1.9800     1.9800     18.733    451.000  74000.000     20.000    41.2537   -11.8937  -120.5078     1.2730    -1.5670    -0.0020    -0.0010    20.6266    41.2556     4.6156    14.6405    14.6392     0.0013    40.0000    39.9920    46.984
     10     1.9852     1.9851     1.9849     18.659   1064.000  74000.000     20.000    41.2537   -12.1467  -121.0186     1.2730    -1.5670    -0.0020    -0.0010    20.6266    41.2556     4.6273    14.6405    14.6392     0.0013    40.0000    39.9950    46.555
     11     1.9901     1.9899     1.9900     18.609   1418.000  74000.000     20.000    41.2537   -12.4065  -121.5304     1.2730    -1.5670    -0.0020    -0.0010    20.6266    41.2556     4.6389    14.6405    14.6392     0.0013    40.0000    39.9890    46.144
     12     1.9951     1.9949     1.9950     18.801   1525.000  74000.000     20.000    41.2537   -12.6624  -122.0432     1.2730    -1.5670    -0.0020    -0.0010    20.6266    41.2556     4.6505    14.6405    14.6392     0.0013    40.0000    40.0070    45.631
     13     2.0001     1.9999     2.0000     18.745   1633.000  74000.000     20.000    41.2537   -12.9222  -122.5639     1.2730    -1.5670    -0.0020    -0.0010    20.6266    41.2556     4.6622    14.6405    14.6392     0.0013    40.0000    40.0150    47.591
     14     2.0051     2.0050     2.0050     18.519   1711.000  74000.000     20.000    41.2537   -13.1850  -123.0904     1.2730    -1.5670    -0.0020    -0.0010    20.6266    41.2556     4.6738    14.6405    14.6392     0.0013    40.0000    40.0030    46.693
     15     2.0101     2.0099     2.0100     18.619   1592.000  74000.000     20.000    41.2537   -13.4508  -123.6200     1.2730    -1.5670    -0.0020    -0.0010    20.6266    41.2556     4.6855    14.6405    14.6392     0.0013    40.0000    40.0110    47.805
     16     2.0151     2.0149     2.0150     18.607   1197.000  74000.000     20.000    41.2537   -13.7175  -124.1524     1.2730    -1.5670    -0.0020    -0.0010    20.6266    41.2556     4.6971    14.6405    14.6392     0.0013    40.0000    40.0110    47.041
     17     2.0201     2.0200     2.0200     18.636    345.000  74000.000     20.000    41.2537   -13.9862  -124.6938     1.2730    -1.5670    -0.0020    -0.0010    20.6266    41.2556     4.7088    14.6405    14.6392     0.0013    40.0000    39.9990    46.198
     18     2.0251     2.0249     2.0250     18.639     21.000  74000.000     20.000    41.2537   -14.2589  -125.2351     1.2730    -1.5670    -0.0020    -0.0010    20.6266    41.2556     4.7204    14.6405    14.6392     0.0013    40.0000    40.0010    46.283
     19     2.0301     2.0299     2.0300     18.547      2.000  74000.000     20.000    41.2537   -14.5335  -125.7853     1.2730    -1.5670    -0.0020    -0.0010    20.6266    41.2556     4.7321    14.6405    14.6392     0.0013    40.0000    39.9910    46.524
     20     2.0351     2.0349     2.0350     18.487      4.000  74000.000     20.000    41.2537   -14.8091  -126.3375     1.2730    -1.5670    -0.0020    -0.0010    20.6266    41.2556     4.7437    14.6405    14.6392     0.0013    40.0000    40.0080    46.954
     21     2.0401     2.0399     2.0400     18.726      4.000  74000.000     20.000    41.2537   -15.0896  -126.8975     1.2730    -1.5670    -0.0020    -0.0010    20.6266    41.2556     4.7554    14.6405    14.6392     0.0013    40.0000    39.9920    45.717
     22     2.0451     2.0449     2.0450     18.716      1.000  74000.000     20.000    41.2537   -15.3730  -127.4635     1.2730    -1.5670    -0.0020    -0.0010    20.6266    41.2556     4.7671    14.6405    14.6392     0.0013    40.0000    39.9980    45.725
     23     2.0501     2.0499     2.0500     18.678      2.000  74000.000     20.000    41.2537   -15.6575  -128.0333     1.2730    -1.5670    -0.0020    -0.0010    20.6266    41.2556     4.7787    14.6405    14.6392     0.0013    40.0000    40.0050    46.930
     24     2.0552     2.0551     2.0549     18.654      1.000  74000.000     20.000    41.2537   -15.9439  -128.6131     1.2730    -1.5670    -0.0020    -0.0010    20.6266    41.2556     4.7904    14.6405    14.6392     0.0013    40.0000    39.9980    46.227
     25     2.0601     2.0600     2.0599     18.594      1.000  74000.000     20.000    41.2537   -16.2352  -129.1918     1.2730    -1.5670    -0.0020    -0.0010    20.6266    41.2556     4.8020    14.6405    14.6392     0.0013    40.0000    40.0280    48.246
# Sum of Counts = 11034
# Center of Mass = 2.000261+/-0.026930
# Full Width Half-Maximum = 0.021876+/-0.016010
# 11:33:33 PM  11/9/2003   scan completed.
