# scan = 317
# date = 11/11/2003
# time = 1:27:58 AM
# experiment = TbPtIn single crystal;  100 plane
# experiment_number = 41
# command = scan h 1.95 2.05 .005 k 1.95 2.05 .005 l 1.95 2.05 .005 preset mcu 10
# builtin_command = scan h 1.95 2.05 .005 k 1.95 2.05 .005 l 1.95 2.05 .005 preset mcu 10
# users = O.Garlea, C.Stassis, J.L.Zarestky
# local_contact = J.L.Zarestky
# scan_title = 222 field dependence: base Temp, H = 5.000000 T
# monochromator = PG002
# analyzer = Pg002
# sense = +-+
# collimation = 48-40-40-102
# samplename = TbPtIn
# sampletype = crystal
# samplemosaic = 30.000000
# latticeconstants = 7.554053,7.554053,3.846679,90.000000,90.000000,120.000000
# ubmatrix = -0.005362,-0.005623,0.259740,-0.129577,-0.134798,-0.010795,0.080912,-0.071857,-0.000073
# mode = 0
# plane_normal = 0.001702,0.034158,0.999415
# ubconf = C:\User\exp41\UBConf\UB10Nov2003_64050PM.ini
# preset_type = normal 
# preset_channel = mcu
# preset_value = 10.000000
# def_x = h
# def_y = detector
# col_headers = 
#   Pt.          h          k          l       time   detector    monitor        mcu         m2         s1         s2        sgl        sgu        stl        stu         a1         a2          q         ei         ef          e       temp    coldtip    tsample
      1     1.9501     1.9504     1.9499      9.377      2.000  37000.000     10.000    41.2537   -10.8780  -117.5668    -0.0960     1.9540     1.0060    -3.9990    20.6267    41.2566     4.5463    14.6405    14.6385     0.0020   295.0000     4.2008     4.306
      2     1.9548     1.9551     1.9550      9.246      4.000  37000.000     10.000    41.2537   -11.1230  -118.0461    -0.0960     1.9540     1.0060    -3.9990    20.6267    41.2566     4.5578    14.6405    14.6385     0.0020   295.0000     4.2126     4.300
      3     1.9599     1.9602     1.9600      9.277      9.000  37000.000     10.000    41.2537   -11.3681  -118.5383    -0.0960     1.9540     1.0060    -3.9990    20.6267    41.2566     4.5695    14.6405    14.6385     0.0020   295.0000     4.2073     4.305
      4     1.9649     1.9651     1.9650      9.191      4.000  37000.000     10.000    41.2537   -11.6152  -119.0314    -0.0960     1.9540     1.0060    -3.9990    20.6267    41.2566     4.5812    14.6405    14.6385     0.0020   295.0000     4.2065     4.303
      5     1.9699     1.9701     1.9700      9.231      4.000  37000.000     10.000    41.2537   -11.8642  -119.5284    -0.0960     1.9540     1.0060    -3.9990    20.6267    41.2566     4.5928    14.6405    14.6385     0.0020   295.0000     4.2043     4.304
      6     1.9749     1.9751     1.9750      9.232      7.000  37000.000     10.000    41.2537   -12.1132  -120.0284    -0.0960     1.9540     1.0060    -3.9990    20.6267    41.2566     4.6044    14.6405    14.6385     0.0020   295.0000     4.2077     4.301
      7     1.9798     1.9801     1.9800      9.296      7.000  37000.000     10.000    41.2537   -12.3681  -120.5343    -0.0960     1.9540     1.0060    -3.9990    20.6267    41.2566     4.6161    14.6405    14.6385     0.0020   295.0000     4.2049     4.301
      8     1.9849     1.9852     1.9850      9.242     50.000  37000.000     10.000    41.2537   -12.6220  -121.0461    -0.0960     1.9540     1.0060    -3.9990    20.6267    41.2566     4.6279    14.6405    14.6385     0.0020   295.0000     4.2059     4.295
      9     1.9899     1.9902     1.9900      9.318    136.000  37000.000     10.000    41.2537   -12.8770  -121.5570    -0.0960     1.9540     1.0060    -3.9990    20.6267    41.2566     4.6395    14.6405    14.6385     0.0020   295.0000     4.2006     4.298
     10     1.9949     1.9952     1.9950      9.298    251.000  37000.000     10.000    41.2537   -13.1348  -122.0737    -0.0960     1.9540     1.0060    -3.9990    20.6267    41.2566     4.6511    14.6405    14.6385     0.0020   295.0000     4.2043     4.295
     11     1.9998     2.0001     2.0000      9.267    321.000  37000.000     10.000    41.2537   -13.3967  -122.5914    -0.0960     1.9540     1.0060    -3.9990    20.6267    41.2566     4.6627    14.6405    14.6385     0.0020   295.0000     4.2048     4.295
     12     2.0048     2.0051     2.0050      9.291    320.000  37000.000     10.000    41.2537   -13.6604  -123.1200    -0.0960     1.9540     1.0060    -3.9990    20.6267    41.2566     4.6744    14.6405    14.6385     0.0020   295.0000     4.2053     4.297
     13     2.0099     2.0101     2.0100      9.267    243.000  37000.000     10.000    41.2537   -13.9242  -123.6485    -0.0960     1.9540     1.0060    -3.9990    20.6267    41.2566     4.6861    14.6405    14.6385     0.0020   295.0000     4.2070     4.297
     14     2.0149     2.0152     2.0150      9.309    194.000  37000.000     10.000    41.2537   -14.1900  -124.1830    -0.0960     1.9540     1.0060    -3.9990    20.6267    41.2566     4.6977    14.6405    14.6385     0.0020   295.0000     4.2059     4.294
     15     2.0198     2.0201     2.0200      9.333    155.000  37000.000     10.000    41.2537   -14.4606  -124.7213    -0.0960     1.9540     1.0060    -3.9990    20.6267    41.2566     4.7094    14.6405    14.6385     0.0020   295.0000     4.2070     4.293
     16     2.0249     2.0252     2.0250      9.276     49.000  37000.000     10.000    41.2537   -14.7323  -125.2666    -0.0960     1.9540     1.0060    -3.9990    20.6267    41.2566     4.7210    14.6405    14.6385     0.0020   295.0000     4.2028     4.291
     17     2.0299     2.0302     2.0300      9.248      2.000  37000.000     10.000    41.2537   -15.0069  -125.8158    -0.0960     1.9540     1.0060    -3.9990    20.6267    41.2566     4.7327    14.6405    14.6385     0.0020   295.0000     4.2071     4.291
     18     2.0349     2.0351     2.0350      9.279      2.000  37000.000     10.000    41.2537   -15.2844  -126.3700    -0.0960     1.9540     1.0060    -3.9990    20.6267    41.2566     4.7444    14.6405    14.6385     0.0020   295.0000     4.2141     4.301
     19     2.0398     2.0400     2.0401      9.299      2.000  37000.000     10.000    41.2537   -15.5659  -126.9280    -0.0960     1.9540     1.0060    -3.9990    20.6267    41.2566     4.7560    14.6405    14.6385     0.0020   295.0000     4.2046     4.288
     20     2.0448     2.0451     2.0450      9.263      7.000  37000.000     10.000    41.2537   -15.8474  -127.4950    -0.0960     1.9540     1.0060    -3.9990    20.6267    41.2566     4.7677    14.6405    14.6385     0.0020   295.0000     4.2058     4.287
     21     2.0500     2.0503     2.0499      9.246      3.000  37000.000     10.000    41.2537   -16.1299  -128.0668    -0.0960     1.9540     1.0060    -3.9990    20.6267    41.2566     4.7793    14.6405    14.6385     0.0020   295.0000     4.2074     4.289
# Sum of Counts = 1772
# Center of Mass = 2.004008+/-0.067327
# Full Width Half-Maximum = 0.023331+/-0.033028
# 1:32:29 AM  11/11/2003   scan completed.
