# scan = 205
# date = 11/10/2003
# time = 4:29:59 AM
# experiment = TbPtIn single crystal;  100 plane
# experiment_number = 41
# command = scan h 1.94 2.06 .005 k 1.94 2.06 .005 l 1.94 2.06 .005 preset mcu 20
# builtin_command = scan h 1.94 2.06 .005 k 1.94 2.06 .005 l 1.94 2.06 .005 preset mcu 20
# users = O.Garlea, C.Stassis, J.L.Zarestky
# local_contact = J.L.Zarestky
# scan_title = 222 order parameter DN T = 13.0000
# monochromator = PG002
# analyzer = Pg002
# sense = +-+
# collimation = 48-40-40-102
# samplename = TbPtIn
# sampletype = crystal
# samplemosaic = 30.000000
# latticeconstants = 7.554017,7.554017,3.847681,90.000000,90.000000,120.000000
# ubmatrix = -0.008230,-0.004834,0.259516,-0.134256,-0.130074,-0.012979,0.072618,-0.080146,0.005414
# mode = 0
# plane_normal = -0.022217,-0.027363,0.999379
# ubconf = C:\User\exp41\UBConf\UB08Nov2003_100555PM.ini
# preset_type = normal 
# preset_channel = mcu
# preset_value = 20.000000
# def_x = h
# def_y = detector
# col_headers = 
#   Pt.          h          k          l       time   detector    monitor        mcu         m2         s1         s2        sgl        sgu        stl        stu         a1         a2          q         ei         ef          e       temp    coldtip    tsample
      1     1.9400     1.9399     1.9401     18.576      3.000  74000.000     20.000    41.2537    -9.9311  -116.5757     1.2730    -1.5670    -0.0020    -0.0010    20.6267    41.2556     4.5224    14.6405    14.6392     0.0013    13.0000    13.0270    12.790
      2     1.9451     1.9450     1.9450     18.615      2.000  74000.000     20.000    41.2537   -10.1663  -117.0530     1.2730    -1.5670    -0.0020    -0.0010    20.6266    41.2556     4.5340    14.6405    14.6392     0.0013    13.0000    13.0190    12.764
      3     1.9501     1.9499     1.9500     18.726      4.000  74000.000     20.000    41.2537   -10.4094  -117.5363     1.2730    -1.5670    -0.0020    -0.0010    20.6266    41.2556     4.5456    14.6405    14.6392     0.0013    13.0000    13.0170    12.777
      4     1.9550     1.9548     1.9550     18.505      3.000  74000.000     20.000    41.2537   -10.6526  -118.0196     1.2730    -1.5670    -0.0020    -0.0010    20.6266    41.2556     4.5572    14.6405    14.6392     0.0013    13.0000    13.0190    12.802
      5     1.9602     1.9600     1.9599     18.654      4.000  74000.000     20.000    41.2537   -10.8957  -118.5137     1.2730    -1.5670    -0.0020    -0.0010    20.6266    41.2556     4.5690    14.6405    14.6392     0.0013    13.0000    13.0410    12.807
      6     1.9650     1.9649     1.9650     18.612      1.000  74000.000     20.000    41.2537   -11.1427  -119.0028     1.2730    -1.5670    -0.0020    -0.0010    20.6266    41.2556     4.5805    14.6405    14.6392     0.0013    13.0000    13.0170    12.776
      7     1.9700     1.9699     1.9700     18.325      6.000  74000.000     20.000    41.2537   -11.3927  -119.5009     1.2730    -1.5670    -0.0020    -0.0010    20.6266    41.2556     4.5922    14.6405    14.6392     0.0013    13.0000    13.0140    12.760
      8     1.9750     1.9749     1.9750     18.634     22.000  74000.000     20.000    41.2537   -11.6417  -119.9999     1.2730    -1.5670    -0.0020    -0.0010    20.6266    41.2556     4.6038    14.6405    14.6392     0.0013    13.0000    13.0480    12.828
      9     1.9801     1.9799     1.9800     18.560    422.000  74000.000     20.000    41.2537   -11.8937  -120.5068     1.2730    -1.5670    -0.0020    -0.0010    20.6266    41.2556     4.6156    14.6405    14.6392     0.0013    13.0000    13.0170    12.776
     10     1.9852     1.9850     1.9849     18.551   1049.000  74000.000     20.000    41.2537   -12.1476  -121.0186     1.2730    -1.5670    -0.0020    -0.0010    20.6266    41.2556     4.6273    14.6405    14.6392     0.0013    13.0000    13.0220    12.761
     11     1.9901     1.9899     1.9901     18.722   1448.000  74000.000     20.000    41.2537   -12.4065  -121.5294     1.2730    -1.5670    -0.0020    -0.0010    20.6266    41.2556     4.6389    14.6405    14.6392     0.0013    13.0000    13.0260    12.813
     12     1.9951     1.9949     1.9950     18.563   1478.000  74000.000     20.000    41.2537   -12.6624  -122.0442     1.2730    -1.5670    -0.0020    -0.0010    20.6266    41.2556     4.6505    14.6405    14.6392     0.0013    13.0000    13.0340    12.778
     13     2.0001     1.9999     2.0000     18.614   1575.000  74000.000     20.000    41.2537   -12.9222  -122.5639     1.2730    -1.5670    -0.0020    -0.0010    20.6266    41.2556     4.6622    14.6405    14.6392     0.0013    13.0000    13.0270    12.790
     14     2.0051     2.0050     2.0050     18.568   1661.000  74000.000     20.000    41.2537   -13.1850  -123.0904     1.2730    -1.5670    -0.0020    -0.0010    20.6266    41.2556     4.6738    14.6405    14.6392     0.0013    13.0000    13.0350    12.818
     15     2.0101     2.0099     2.0100     18.453   1620.000  74000.000     20.000    41.2537   -13.4518  -123.6200     1.2730    -1.5670    -0.0020    -0.0010    20.6266    41.2556     4.6855    14.6405    14.6392     0.0013    13.0000    13.0420    12.806
     16     2.0150     2.0149     2.0150     18.527   1305.000  74000.000     20.000    41.2537   -13.7175  -124.1515     1.2730    -1.5670    -0.0020    -0.0010    20.6266    41.2556     4.6971    14.6405    14.6392     0.0013    13.0000    13.0350    12.790
     17     2.0201     2.0200     2.0200     18.560    418.000  74000.000     20.000    41.2537   -13.9862  -124.6928     1.2730    -1.5670    -0.0020    -0.0010    20.6266    41.2556     4.7088    14.6405    14.6392     0.0013    13.0000    13.0420    12.791
     18     2.0250     2.0249     2.0250     18.640     25.000  74000.000     20.000    41.2537   -14.2598  -125.2351     1.2730    -1.5670    -0.0020    -0.0010    20.6266    41.2556     4.7204    14.6405    14.6392     0.0013    13.0000    13.0410    12.800
     19     2.0301     2.0300     2.0300     18.683      3.000  74000.000     20.000    41.2537   -14.5325  -125.7853     1.2730    -1.5670    -0.0020    -0.0010    20.6266    41.2556     4.7321    14.6405    14.6392     0.0013    13.0000    13.0360    12.787
     20     2.0351     2.0349     2.0350     18.682      3.000  74000.000     20.000    41.2537   -14.8091  -126.3375     1.2730    -1.5670    -0.0020    -0.0010    20.6266    41.2556     4.7437    14.6405    14.6392     0.0013    13.0000    13.0380    12.814
     21     2.0400     2.0399     2.0400     18.576      0.000  74000.000     20.000    41.2537   -15.0906  -126.8975     1.2730    -1.5670    -0.0020    -0.0010    20.6266    41.2556     4.7554    14.6405    14.6392     0.0013    13.0000    13.0380    12.799
     22     2.0451     2.0449     2.0450     18.456      1.000  74000.000     20.000    41.2537   -15.3730  -127.4635     1.2730    -1.5670    -0.0020    -0.0010    20.6266    41.2556     4.7671    14.6405    14.6392     0.0013    13.0000    13.0370    12.783
     23     2.0500     2.0499     2.0500     18.521      3.000  74000.000     20.000    41.2537   -15.6585  -128.0333     1.2730    -1.5670    -0.0020    -0.0010    20.6266    41.2556     4.7787    14.6405    14.6392     0.0013    13.0000    13.0380    12.811
     24     2.0552     2.0550     2.0549     18.599      1.000  74000.000     20.000    41.2537   -15.9449  -128.6141     1.2730    -1.5670    -0.0020    -0.0010    20.6266    41.2556     4.7905    14.6405    14.6392     0.0013    13.0000    13.0430    12.824
     25     2.0601     2.0600     2.0599     18.631      7.000  74000.000     20.000    41.2537   -16.2352  -129.1918     1.2730    -1.5670    -0.0020    -0.0010    20.6266    41.2556     4.8020    14.6405    14.6392     0.0013    13.0000    13.0440    12.841
# Sum of Counts = 11064
# Center of Mass = 2.000670+/-0.026899
# Full Width Half-Maximum = 0.022172+/-0.016092
# 4:39:03 AM  11/10/2003   scan completed.
