# scan = 257
# date = 11/10/2003
# time = 9:28:16 PM
# experiment = TbPtIn single crystal;  100 plane
# experiment_number = 41
# command = scan h 1.95 2.05 .005 k 1.95 2.05 .005 l 1.95 2.05 .005 preset mcu 10
# builtin_command = scan h 1.95 2.05 .005 k 1.95 2.05 .005 l 1.95 2.05 .005 preset mcu 10
# users = O.Garlea, C.Stassis, J.L.Zarestky
# local_contact = J.L.Zarestky
# scan_title = 222 field dependence: base Temp, H = 0.400000 T
# monochromator = PG002
# analyzer = Pg002
# sense = +-+
# collimation = 48-40-40-102
# samplename = TbPtIn
# sampletype = crystal
# samplemosaic = 30.000000
# latticeconstants = 7.554053,7.554053,3.846679,90.000000,90.000000,120.000000
# ubmatrix = -0.005362,-0.005623,0.259740,-0.129577,-0.134798,-0.010795,0.080912,-0.071857,-0.000073
# mode = 0
# plane_normal = 0.001702,0.034158,0.999415
# ubconf = C:\User\exp41\UBConf\UB10Nov2003_64050PM.ini
# preset_type = normal 
# preset_channel = mcu
# preset_value = 10.000000
# def_x = h
# def_y = detector
# col_headers = 
#   Pt.          h          k          l       time   detector    monitor        mcu         m2         s1         s2        sgl        sgu        stl        stu         a1         a2          q         ei         ef          e       temp    coldtip    tsample
      1     1.9500     1.9504     1.9499      9.287      3.000  37000.000     10.000    41.2537   -10.8789  -117.5668    -0.0975     1.9545     1.0040    -3.9990    20.6266    41.2566     4.5463    14.6405    14.6385     0.0020   295.0000     4.2365     5.347
      2     1.9548     1.9551     1.9550      9.276      5.000  37000.000     10.000    41.2537   -11.1240  -118.0461    -0.0975     1.9545     1.0040    -3.9990    20.6266    41.2566     4.5578    14.6405    14.6385     0.0020   295.0000     4.2379     5.353
      3     1.9599     1.9602     1.9600      9.179      3.000  37000.000     10.000    41.2537   -11.3681  -118.5393    -0.0975     1.9545     1.0040    -3.9990    20.6266    41.2566     4.5695    14.6405    14.6385     0.0020   295.0000     4.2478     5.352
      4     1.9648     1.9651     1.9650      9.232      5.000  37000.000     10.000    41.2537   -11.6161  -119.0304    -0.0975     1.9545     1.0040    -3.9990    20.6266    41.2566     4.5811    14.6405    14.6385     0.0020   295.0000     4.2358     5.349
      5     1.9698     1.9702     1.9700      9.279      4.000  37000.000     10.000    41.2537   -11.8632  -119.5284    -0.0975     1.9545     1.0040    -3.9990    20.6266    41.2566     4.5928    14.6405    14.6385     0.0020   295.0000     4.2384     5.349
      6     1.9748     1.9752     1.9750      9.148      7.000  37000.000     10.000    41.2537   -12.1132  -120.0284    -0.0975     1.9545     1.0040    -3.9990    20.6266    41.2566     4.6044    14.6405    14.6385     0.0020   295.0000     4.2340     5.342
      7     1.9798     1.9802     1.9800      9.271      9.000  37000.000     10.000    41.2537   -12.3671  -120.5353    -0.0975     1.9545     1.0040    -3.9990    20.6266    41.2566     4.6162    14.6405    14.6385     0.0020   295.0000     4.2341     5.344
      8     1.9848     1.9852     1.9850      9.272     83.000  37000.000     10.000    41.2537   -12.6220  -121.0452    -0.0975     1.9545     1.0040    -3.9990    20.6266    41.2566     4.6278    14.6405    14.6385     0.0020   295.0000     4.2377     5.339
      9     1.9899     1.9903     1.9900      9.348    169.000  37000.000     10.000    41.2537   -12.8770  -121.5580    -0.0975     1.9545     1.0040    -3.9990    20.6266    41.2566     4.6395    14.6405    14.6385     0.0020   295.0000     4.2366     5.341
     10     1.9949     1.9952     1.9949      9.292    249.000  37000.000     10.000    41.2537   -13.1339  -122.0717    -0.0975     1.9545     1.0040    -3.9990    20.6266    41.2566     4.6511    14.6405    14.6385     0.0020   295.0000     4.2362     5.338
     11     1.9998     2.0002     2.0000      9.242    348.000  37000.000     10.000    41.2537   -13.3967  -122.5934    -0.0975     1.9545     1.0040    -3.9990    20.6266    41.2566     4.6628    14.6405    14.6385     0.0020   295.0000     4.2339     5.339
     12     2.0048     2.0052     2.0050      9.223    313.000  37000.000     10.000    41.2537   -13.6594  -123.1180    -0.0975     1.9545     1.0040    -3.9990    20.6266    41.2566     4.6744    14.6405    14.6385     0.0020   295.0000     4.2370     5.339
     13     2.0098     2.0102     2.0100      9.300    278.000  37000.000     10.000    41.2537   -13.9252  -123.6495    -0.0975     1.9545     1.0040    -3.9990    20.6266    41.2566     4.6861    14.6405    14.6385     0.0020   295.0000     4.2352     5.334
     14     2.0148     2.0152     2.0150      9.286    218.000  37000.000     10.000    41.2537   -14.1900  -124.1820    -0.0975     1.9545     1.0040    -3.9990    20.6266    41.2566     4.6977    14.6405    14.6385     0.0020   295.0000     4.2362     5.330
     15     2.0198     2.0202     2.0200      9.263    191.000  37000.000     10.000    41.2537   -14.4606  -124.7233    -0.0975     1.9545     1.0040    -3.9990    20.6266    41.2566     4.7094    14.6405    14.6385     0.0020   295.0000     4.2358     5.328
     16     2.0248     2.0252     2.0250      9.190     63.000  37000.000     10.000    41.2537   -14.7323  -125.2646    -0.0975     1.9545     1.0040    -3.9990    20.6266    41.2566     4.7210    14.6405    14.6385     0.0020   295.0000     4.2371     5.327
     17     2.0299     2.0302     2.0300      9.287      7.000  37000.000     10.000    41.2537   -15.0069  -125.8168    -0.0975     1.9545     1.0040    -3.9990    20.6266    41.2566     4.7327    14.6405    14.6385     0.0020   295.0000     4.2376     5.324
     18     2.0348     2.0351     2.0350      9.322      4.000  37000.000     10.000    41.2537   -15.2844  -126.3680    -0.0975     1.9545     1.0040    -3.9990    20.6266    41.2566     4.7443    14.6405    14.6385     0.0020   295.0000     4.2340     5.326
     19     2.0398     2.0402     2.0400      9.270      5.000  37000.000     10.000    41.2537   -15.5650  -126.9290    -0.0975     1.9545     1.0040    -3.9990    20.6266    41.2566     4.7560    14.6405    14.6385     0.0020   295.0000     4.2360     5.313
     20     2.0448     2.0452     2.0450      9.279      4.000  37000.000     10.000    41.2537   -15.8474  -127.4950    -0.0975     1.9545     1.0040    -3.9990    20.6266    41.2566     4.7677    14.6405    14.6385     0.0020   295.0000     4.2380     5.317
     21     2.0499     2.0503     2.0499      9.301      3.000  37000.000     10.000    41.2537   -16.1299  -128.0658    -0.0975     1.9545     1.0040    -3.9990    20.6266    41.2566     4.7793    14.6405    14.6385     0.0020   295.0000     4.2365     5.317
# Sum of Counts = 1971
# Center of Mass = 2.004168+/-0.063842
# Full Width Half-Maximum = 0.023794+/-0.032164
# 9:32:47 PM  11/10/2003   scan completed.
