# scan = 190
# date = 11/10/2003
# time = 2:48:20 AM
# experiment = TbPtIn single crystal;  100 plane
# experiment_number = 41
# command = scan h 1.94 2.06 .005 k 1.94 2.06 .005 l 1.94 2.06 .005 preset mcu 20
# builtin_command = scan h 1.94 2.06 .005 k 1.94 2.06 .005 l 1.94 2.06 .005 preset mcu 20
# users = O.Garlea, C.Stassis, J.L.Zarestky
# local_contact = J.L.Zarestky
# scan_title = 222 order parameter DN T = 22.0000
# monochromator = PG002
# analyzer = Pg002
# sense = +-+
# collimation = 48-40-40-102
# samplename = TbPtIn
# sampletype = crystal
# samplemosaic = 30.000000
# latticeconstants = 7.554017,7.554017,3.847681,90.000000,90.000000,120.000000
# ubmatrix = -0.008230,-0.004834,0.259516,-0.134256,-0.130074,-0.012979,0.072618,-0.080146,0.005414
# mode = 0
# plane_normal = -0.022217,-0.027363,0.999379
# ubconf = C:\User\exp41\UBConf\UB08Nov2003_100555PM.ini
# preset_type = normal 
# preset_channel = mcu
# preset_value = 20.000000
# def_x = h
# def_y = detector
# col_headers = 
#   Pt.          h          k          l       time   detector    monitor        mcu         m2         s1         s2        sgl        sgu        stl        stu         a1         a2          q         ei         ef          e       temp    coldtip    tsample
      1     1.9400     1.9398     1.9401     18.593      3.000  74000.000     20.000    41.2537    -9.9321  -116.5757     1.2730    -1.5670    -0.0020    -0.0010    20.6267    41.2556     4.5224    14.6405    14.6392     0.0013    22.0000    22.0120    22.040
      2     1.9451     1.9450     1.9449     18.860      7.000  74000.000     20.000    41.2537   -10.1654  -117.0520     1.2730    -1.5670    -0.0020    -0.0010    20.6266    41.2556     4.5339    14.6405    14.6392     0.0013    22.0000    22.0030    22.082
      3     1.9501     1.9499     1.9500     18.600      4.000  74000.000     20.000    41.2537   -10.4094  -117.5363     1.2730    -1.5670    -0.0020    -0.0010    20.6266    41.2556     4.5456    14.6405    14.6392     0.0013    22.0000    22.0100    22.056
      4     1.9550     1.9548     1.9551     18.603      4.000  74000.000     20.000    41.2537   -10.6535  -118.0206     1.2730    -1.5670    -0.0020    -0.0010    20.6266    41.2556     4.5572    14.6405    14.6392     0.0013    22.0000    22.0120    22.040
      5     1.9601     1.9600     1.9600     18.722      2.000  74000.000     20.000    41.2537   -10.8957  -118.5127     1.2730    -1.5670    -0.0020    -0.0010    20.6266    41.2556     4.5690    14.6405    14.6392     0.0013    22.0000    22.0050    22.041
      6     1.9651     1.9649     1.9650     18.686      2.000  74000.000     20.000    41.2537   -11.1417  -119.0028     1.2730    -1.5670    -0.0020    -0.0010    20.6266    41.2556     4.5805    14.6405    14.6392     0.0013    22.0000    22.0080    22.043
      7     1.9700     1.9699     1.9700     18.607      5.000  74000.000     20.000    41.2537   -11.3927  -119.5009     1.2730    -1.5670    -0.0020    -0.0010    20.6266    41.2556     4.5922    14.6405    14.6392     0.0013    22.0000    22.0120    22.045
      8     1.9751     1.9749     1.9750     18.603     22.000  74000.000     20.000    41.2537   -11.6417  -120.0009     1.2730    -1.5670    -0.0020    -0.0010    20.6266    41.2556     4.6039    14.6405    14.6392     0.0013    22.0000    21.9970    22.056
      9     1.9801     1.9799     1.9800     18.589    425.000  74000.000     20.000    41.2537   -11.8937  -120.5068     1.2730    -1.5670    -0.0020    -0.0010    20.6266    41.2556     4.6156    14.6405    14.6392     0.0013    22.0000    22.0100    22.022
     10     1.9852     1.9851     1.9849     18.499   1048.000  74000.000     20.000    41.2537   -12.1467  -121.0186     1.2730    -1.5670    -0.0020    -0.0010    20.6266    41.2556     4.6273    14.6405    14.6392     0.0013    22.0000    22.0070    22.026
     11     1.9901     1.9899     1.9900     18.632   1404.000  74000.000     20.000    41.2537   -12.4065  -121.5304     1.2730    -1.5670    -0.0020    -0.0010    20.6266    41.2556     4.6389    14.6405    14.6392     0.0013    22.0000    22.0000    22.045
     12     1.9951     1.9949     1.9950     18.605   1415.000  74000.000     20.000    41.2537   -12.6624  -122.0432     1.2730    -1.5670    -0.0020    -0.0010    20.6266    41.2556     4.6505    14.6405    14.6392     0.0013    22.0000    22.0130    22.073
     13     2.0001     2.0000     1.9999     18.677   1620.000  74000.000     20.000    41.2537   -12.9213  -122.5639     1.2730    -1.5670    -0.0020    -0.0010    20.6266    41.2556     4.6622    14.6405    14.6392     0.0013    22.0000    22.0150    22.097
     14     2.0051     2.0050     2.0050     18.661   1662.000  74000.000     20.000    41.2537   -13.1850  -123.0904     1.2730    -1.5670    -0.0020    -0.0010    20.6266    41.2556     4.6738    14.6405    14.6392     0.0013    22.0000    21.9970    22.052
     15     2.0101     2.0099     2.0100     18.640   1601.000  74000.000     20.000    41.2537   -13.4518  -123.6200     1.2730    -1.5670    -0.0020    -0.0010    20.6266    41.2556     4.6855    14.6405    14.6392     0.0013    22.0000    22.0070    22.028
     16     2.0151     2.0149     2.0150     18.725   1322.000  74000.000     20.000    41.2537   -13.7175  -124.1524     1.2730    -1.5670    -0.0020    -0.0010    20.6266    41.2556     4.6971    14.6405    14.6392     0.0013    22.0000    22.0040    22.025
     17     2.0201     2.0200     2.0200     18.660    432.000  74000.000     20.000    41.2537   -13.9862  -124.6938     1.2730    -1.5670    -0.0020    -0.0010    20.6266    41.2556     4.7088    14.6405    14.6392     0.0013    22.0000    22.0010    22.036
     18     2.0251     2.0249     2.0250     18.740     33.000  74000.000     20.000    41.2537   -14.2589  -125.2351     1.2730    -1.5670    -0.0020    -0.0010    20.6266    41.2556     4.7204    14.6405    14.6392     0.0013    22.0000    22.0060    22.050
     19     2.0301     2.0299     2.0300     18.682      4.000  74000.000     20.000    41.2537   -14.5335  -125.7853     1.2730    -1.5670    -0.0020    -0.0010    20.6266    41.2556     4.7321    14.6405    14.6392     0.0013    22.0000    22.0080    22.048
     20     2.0351     2.0349     2.0350     18.532      2.000  74000.000     20.000    41.2537   -14.8091  -126.3375     1.2730    -1.5670    -0.0020    -0.0010    20.6266    41.2556     4.7437    14.6405    14.6392     0.0013    22.0000    22.0060    22.054
     21     2.0400     2.0399     2.0400     18.539      1.000  74000.000     20.000    41.2537   -15.0906  -126.8975     1.2730    -1.5670    -0.0020    -0.0010    20.6266    41.2556     4.7554    14.6405    14.6392     0.0013    22.0000    22.0030    22.066
     22     2.0451     2.0449     2.0450     18.647      2.000  74000.000     20.000    41.2537   -15.3730  -127.4635     1.2730    -1.5670    -0.0020    -0.0010    20.6266    41.2556     4.7671    14.6405    14.6392     0.0013    22.0000    22.0090    22.105
     23     2.0500     2.0499     2.0500     18.529      4.000  74000.000     20.000    41.2537   -15.6585  -128.0333     1.2730    -1.5670    -0.0020    -0.0010    20.6266    41.2556     4.7787    14.6405    14.6392     0.0013    22.0000    22.0130    22.071
     24     2.0552     2.0550     2.0550     18.617      2.000  74000.000     20.000    41.2537   -15.9459  -128.6141     1.2730    -1.5670    -0.0020    -0.0010    20.6266    41.2556     4.7905    14.6405    14.6392     0.0013    22.0000    21.9980    22.036
     25     2.0602     2.0600     2.0599     18.581      2.000  74000.000     20.000    41.2537   -16.2343  -129.1918     1.2730    -1.5670    -0.0020    -0.0010    20.6266    41.2556     4.8020    14.6405    14.6392     0.0013    22.0000    22.0070    22.057
# Sum of Counts = 11028
# Center of Mass = 2.000765+/-0.026944
# Full Width Half-Maximum = 0.022333+/-0.016011
# 2:57:26 AM  11/10/2003   scan completed.
