# scan = 44
# date = 11/9/2003
# time = 10:10:11 AM
# experiment = TbPtIn single crystal;  100 plane
# experiment_number = 41
# command = scan h 1.4 1.55 .005 k 1.4 1.55 .005 l 2.4 2.55 .005 preset mcu 6
# builtin_command = scan h 1.4 1.55 .005 k 1.4 1.55 .005 l 2.4 2.55 .005 preset mcu 6
# users = O.Garlea, C.Stassis, J.L.Zarestky
# local_contact = J.L.Zarestky
# scan_title = h,h,h+1 scan extension add to #36
# monochromator = PG002
# analyzer = Pg002
# sense = +-+
# collimation = 48-40-40-102
# samplename = TbPtIn
# sampletype = crystal
# samplemosaic = 30.000000
# latticeconstants = 7.554017,7.554017,3.847681,90.000000,90.000000,120.000000
# ubmatrix = -0.008230,-0.004834,0.259516,-0.134256,-0.130074,-0.012979,0.072618,-0.080146,0.005414
# mode = 0
# plane_normal = -0.022217,-0.027363,0.999379
# ubconf = C:\User\exp41\UBConf\UB08Nov2003_100555PM.ini
# preset_type = normal 
# preset_channel = mcu
# preset_value = 6.000000
# def_x = h
# def_y = detector
# col_headers = 
#   Pt.          h          k          l       time   detector    monitor        mcu         m2         s1         s2        sgl        sgu        stl        stu         a1         a2          q         ei         ef          e       temp    coldtip    tsample
      1     1.4001     1.4000     2.4000      5.674      0.000  22200.000      6.000    41.2537   -25.4961  -118.0924     1.2730    -1.5670    -0.0020    -0.0010    20.6267    41.2556     4.5590    14.6405    14.6392     0.0013   295.0000     9.8865     9.637
      2     1.4050     1.4049     2.4050      5.535      1.000  22200.000      6.000    41.2537   -25.6959  -118.5639     1.2730    -1.5670    -0.0020    -0.0010    20.6267    41.2556     4.5702    14.6405    14.6392     0.0013   295.0000     9.8177     9.557
      3     1.4100     1.4099     2.4100      5.633      0.000  22200.000      6.000    41.2537   -25.8976  -119.0402     1.2730    -1.5670    -0.0020    -0.0010    20.6267    41.2556     4.5814    14.6405    14.6392     0.0013   295.0000     9.8221     9.551
      4     1.4151     1.4150     2.4150      5.647      1.000  22200.000      6.000    41.2537   -26.0994  -119.5225     1.2730    -1.5670    -0.0020    -0.0010    20.6267    41.2556     4.5927    14.6405    14.6392     0.0013   295.0000     9.8184     9.543
      5     1.4200     1.4199     2.4200      5.593      1.000  22200.000      6.000    41.2537   -26.3071  -120.0058     1.2730    -1.5670    -0.0020    -0.0010    20.6267    41.2556     4.6040    14.6405    14.6392     0.0013   295.0000     9.8205     9.556
      6     1.4251     1.4250     2.4250      5.630      1.000  22200.000      6.000    41.2537   -26.5138  -120.4969     1.2730    -1.5670    -0.0020    -0.0010    20.6266    41.2556     4.6153    14.6405    14.6392     0.0013   295.0000     9.8205     9.556
      7     1.4302     1.4301     2.4299      5.623      2.000  22200.000      6.000    41.2537   -26.7205  -120.9881     1.2730    -1.5670    -0.0020    -0.0010    20.6266    41.2556     4.6266    14.6405    14.6392     0.0013   295.0000     9.8190     9.540
      8     1.4351     1.4350     2.4350      5.584      3.000  22200.000      6.000    41.2537   -26.9350  -121.4851     1.2730    -1.5670    -0.0020    -0.0010    20.6266    41.2556     4.6379    14.6405    14.6392     0.0013   295.0000     9.8218     9.584
      9     1.4401     1.4400     2.4400      5.654      1.000  22200.000      6.000    41.2537   -27.1476  -121.9832     1.2730    -1.5670    -0.0020    -0.0010    20.6266    41.2556     4.6492    14.6405    14.6392     0.0013   295.0000     9.8180     9.541
     10     1.4450     1.4449     2.4450      5.597      0.000  22200.000      6.000    41.2537   -27.3652  -122.4841     1.2730    -1.5670    -0.0020    -0.0010    20.6266    41.2556     4.6604    14.6405    14.6392     0.0013   295.0000     9.8155     9.556
     11     1.4500     1.4499     2.4500      5.611      1.000  22200.000      6.000    41.2537   -27.5827  -122.9930     1.2730    -1.5670    -0.0020    -0.0010    20.6266    41.2556     4.6717    14.6405    14.6392     0.0013   295.0000     9.8155     9.556
     12     1.4551     1.4550     2.4550      5.543      0.000  22200.000      6.000    41.2537   -27.8022  -123.5068     1.2730    -1.5670    -0.0020    -0.0010    20.6266    41.2556     4.6830    14.6405    14.6392     0.0013   295.0000     9.8157     9.546
     13     1.4600     1.4599     2.4600      5.607      3.000  22200.000      6.000    41.2537   -28.0256  -124.0196     1.2730    -1.5670    -0.0020    -0.0010    20.6266    41.2556     4.6942    14.6405    14.6392     0.0013   295.0000     9.8103     9.551
     14     1.4651     1.4649     2.4650      5.615      0.000  22200.000      6.000    41.2537   -28.2510  -124.5432     1.2730    -1.5670    -0.0020    -0.0010    20.6266    41.2556     4.7056    14.6405    14.6392     0.0013   295.0000     9.8047     9.537
     15     1.4699     1.4698     2.4701      5.630      2.000  22200.000      6.000    41.2537   -28.4803  -125.0668     1.2730    -1.5670    -0.0020    -0.0010    20.6266    41.2556     4.7168    14.6405    14.6392     0.0013   295.0000     9.8088     9.592
     16     1.4751     1.4750     2.4750      5.599     11.000  22200.000      6.000    41.2537   -28.7077  -125.5993     1.2730    -1.5670    -0.0020    -0.0010    20.6266    41.2556     4.7282    14.6405    14.6392     0.0013   295.0000     9.8088     9.592
     17     1.4800     1.4799     2.4800      5.644     32.000  22200.000      6.000    41.2537   -28.9409  -126.1318     1.2730    -1.5670    -0.0020    -0.0010    20.6266    41.2556     4.7394    14.6405    14.6392     0.0013   295.0000     9.8014     9.529
     18     1.4851     1.4850     2.4850      5.571     52.000  22200.000      6.000    41.2537   -29.1772  -126.6751     1.2730    -1.5670    -0.0020    -0.0010    20.6266    41.2556     4.7508    14.6405    14.6392     0.0013   295.0000     9.7965     9.525
     19     1.4900     1.4898     2.4901      5.618     84.000  22200.000      6.000    41.2537   -29.4173  -127.2184     1.2730    -1.5670    -0.0020    -0.0010    20.6266    41.2556     4.7620    14.6405    14.6392     0.0013   295.0000     9.8045     9.584
     20     1.4951     1.4949     2.4950      5.635     95.000  22200.000      6.000    41.2537   -29.6565  -127.7696     1.2730    -1.5670    -0.0020    -0.0010    20.6266    41.2556     4.7733    14.6405    14.6392     0.0013   295.0000     9.8008     9.546
     21     1.5001     1.4999     2.5000      5.680    105.000  22200.000      6.000    41.2537   -29.8996  -128.3247     1.2730    -1.5670    -0.0020    -0.0010    20.6266    41.2556     4.7846    14.6405    14.6392     0.0013   295.0000     9.8008     9.546
     22     1.5052     1.5051     2.5050      5.574     92.000  22200.000      6.000    41.2537   -30.1467  -128.8926     1.2730    -1.5670    -0.0020    -0.0010    20.6266    41.2556     4.7961    14.6405    14.6392     0.0013   295.0000     9.8047     9.534
     23     1.5100     1.5099     2.5100      5.579    103.000  22200.000      6.000    41.2537   -30.3986  -129.4546     1.2730    -1.5670    -0.0020    -0.0010    20.6266    41.2556     4.8072    14.6405    14.6392     0.0013   295.0000     9.7938     9.556
     24     1.5150     1.5148     2.5150      5.591     90.000  22200.000      6.000    41.2537   -30.6516  -130.0274     1.2730    -1.5670    -0.0020    -0.0010    20.6266    41.2556     4.8185    14.6405    14.6392     0.0013   295.0000     9.7940     9.526
     25     1.5201     1.5199     2.5200      5.662     41.000  22200.000      6.000    41.2537   -30.9075  -130.6101     1.2730    -1.5670    -0.0020    -0.0010    20.6266    41.2556     4.8299    14.6405    14.6392     0.0013   295.0000     9.8042     9.591
     26     1.5251     1.5250     2.5250      5.638      3.000  22200.000      6.000    41.2537   -31.1663  -131.1967     1.2730    -1.5670    -0.0020    -0.0010    20.6266    41.2556     4.8412    14.6405    14.6392     0.0013   295.0000     9.8042     9.591
     27     1.5300     1.5299     2.5300      5.655      1.000  22200.000      6.000    41.2537   -31.4321  -131.7893     1.2730    -1.5670    -0.0020    -0.0010    20.6266    41.2556     4.8525    14.6405    14.6392     0.0013   295.0000     9.8077     9.575
     28     1.5350     1.5349     2.5350      5.622      1.000  22200.000      6.000    41.2537   -31.6988  -132.3906     1.2730    -1.5670    -0.0020    -0.0010    20.6266    41.2556     4.8638    14.6405    14.6392     0.0013   295.0000     9.8070     9.533
     29     1.5401     1.5399     2.5400      5.648      2.000  22200.000      6.000    41.2537   -31.9685  -132.9969     1.2730    -1.5670    -0.0020    -0.0010    20.6266    41.2556     4.8751    14.6405    14.6392     0.0013   295.0000     9.8061     9.542
     30     1.5451     1.5449     2.5450      5.606      2.000  22200.000      6.000    41.2537   -32.2461  -133.6160     1.2730    -1.5670    -0.0020    -0.0010    20.6266    41.2556     4.8865    14.6405    14.6392     0.0013   295.0000     9.8098     9.601
     31     1.5500     1.5499     2.5500      5.626      3.000  22200.000      6.000    41.2537   -32.5256  -134.2391     1.2730    -1.5670    -0.0020    -0.0010    20.6266    41.2556     4.8978    14.6405    14.6392     0.0013   295.0000     9.8109     9.560
# Sum of Counts = 733
# Center of Mass = 1.500273+/-0.078369
# Full Width Half-Maximum = 0.030771+/-0.033776
# 10:14:29 AM  11/9/2003   scan completed.
